# Temperatura_=_20.0
# Concentracion g/m^3_=_9900.0
# C_Vs_to_Am_M_A/Vsm_=_65563218390.804596
# pendiente_HvsI_1/m_=_3716.3
# ordenada_HvsI_A/m_=_1297.0
# frecuencia_Hz_=_301705.8485926721

Tiempo_(s)	Campo_(V.s)	Magnetizacion_(V.s)	Campo_(kA/m)	Magnetizacion_(A/m)
0.000000e+00	-7.916059e-06	-1.126379e-08	-5.754631e+01	-7.357449e+02
1.000000e-08	-7.911645e-06	-1.126057e-08	-5.751421e+01	-7.356222e+02
2.000000e-08	-7.904726e-06	-1.125240e-08	-5.746392e+01	-7.354118e+02
3.000000e-08	-7.895108e-06	-1.124653e-08	-5.739400e+01	-7.351162e+02
4.000000e-08	-7.882655e-06	-1.123806e-08	-5.730347e+01	-7.347414e+02
5.000000e-08	-7.867348e-06	-1.122476e-08	-5.719220e+01	-7.342957e+02
6.000000e-08	-7.849370e-06	-1.120359e-08	-5.706150e+01	-7.337886e+02
7.000000e-08	-7.829021e-06	-1.117334e-08	-5.691358e+01	-7.332293e+02
8.000000e-08	-7.806007e-06	-1.125317e-08	-5.674627e+01	-7.326263e+02
9.000000e-08	-7.779842e-06	-1.127736e-08	-5.655606e+01	-7.319870e+02
1.000000e-07	-7.750617e-06	-1.119333e-08	-5.634361e+01	-7.313175e+02
1.100000e-07	-7.718578e-06	-1.116009e-08	-5.611070e+01	-7.306229e+02
1.200000e-07	-7.683756e-06	-1.115417e-08	-5.585756e+01	-7.299073e+02
1.300000e-07	-7.646550e-06	-1.111202e-08	-5.558709e+01	-7.291730e+02
1.400000e-07	-7.607363e-06	-1.106242e-08	-5.530222e+01	-7.284199e+02
1.500000e-07	-7.565730e-06	-1.121727e-08	-5.499956e+01	-7.276443e+02
1.600000e-07	-7.521243e-06	-1.112192e-08	-5.467616e+01	-7.268376e+02
1.700000e-07	-7.474128e-06	-1.098337e-08	-5.433366e+01	-7.259870e+02
1.800000e-07	-7.424135e-06	-1.116306e-08	-5.397023e+01	-7.250750e+02
1.900000e-07	-7.371106e-06	-1.107839e-08	-5.358473e+01	-7.240826e+02
2.000000e-07	-7.315279e-06	-1.105342e-08	-5.317889e+01	-7.229911e+02
2.100000e-07	-7.256701e-06	-1.105441e-08	-5.275306e+01	-7.217855e+02
2.200000e-07	-7.195551e-06	-1.098743e-08	-5.230852e+01	-7.204577e+02
2.300000e-07	-7.131800e-06	-1.100787e-08	-5.184508e+01	-7.190076e+02
2.400000e-07	-7.065369e-06	-1.093124e-08	-5.136216e+01	-7.174436e+02
2.500000e-07	-6.996425e-06	-1.096621e-08	-5.086096e+01	-7.157807e+02
2.600000e-07	-6.924893e-06	-1.091774e-08	-5.034096e+01	-7.140376e+02
2.700000e-07	-6.850662e-06	-1.086598e-08	-4.980133e+01	-7.122321e+02
2.800000e-07	-6.773792e-06	-1.082545e-08	-4.924252e+01	-7.103778e+02
2.900000e-07	-6.694270e-06	-1.082582e-08	-4.866443e+01	-7.084807e+02
3.000000e-07	-6.612236e-06	-1.084243e-08	-4.806808e+01	-7.065387e+02
3.100000e-07	-6.527992e-06	-1.071537e-08	-4.745566e+01	-7.045421e+02
3.200000e-07	-6.441584e-06	-1.072353e-08	-4.682751e+01	-7.024767e+02
3.300000e-07	-6.352883e-06	-1.070013e-08	-4.618270e+01	-7.003271e+02
3.400000e-07	-6.261860e-06	-1.064887e-08	-4.552100e+01	-6.980814e+02
3.500000e-07	-6.168621e-06	-1.061156e-08	-4.484319e+01	-6.957333e+02
3.600000e-07	-6.073189e-06	-1.058917e-08	-4.414944e+01	-6.932838e+02
3.700000e-07	-5.975474e-06	-1.054800e-08	-4.343910e+01	-6.907402e+02
3.800000e-07	-5.875553e-06	-1.047368e-08	-4.271271e+01	-6.881133e+02
3.900000e-07	-5.773579e-06	-1.046132e-08	-4.197141e+01	-6.854145e+02
4.000000e-07	-5.669553e-06	-1.042393e-08	-4.121518e+01	-6.826516e+02
4.100000e-07	-5.563476e-06	-1.037649e-08	-4.044405e+01	-6.798267e+02
4.200000e-07	-5.455357e-06	-1.030250e-08	-3.965807e+01	-6.769352e+02
4.300000e-07	-5.345241e-06	-1.026992e-08	-3.885757e+01	-6.739670e+02
4.400000e-07	-5.233123e-06	-1.023269e-08	-3.804252e+01	-6.709093e+02
4.500000e-07	-5.118965e-06	-1.017420e-08	-3.721265e+01	-6.677499e+02
4.600000e-07	-5.002899e-06	-1.011874e-08	-3.636890e+01	-6.644801e+02
4.700000e-07	-4.884954e-06	-1.007758e-08	-3.551149e+01	-6.610973e+02
4.800000e-07	-4.765129e-06	-1.002578e-08	-3.464041e+01	-6.576045e+02
4.900000e-07	-4.643502e-06	-9.955822e-09	-3.375624e+01	-6.540088e+02
5.000000e-07	-4.520188e-06	-9.911335e-09	-3.285980e+01	-6.503188e+02
5.100000e-07	-4.395259e-06	-9.858880e-09	-3.195162e+01	-6.465403e+02
5.200000e-07	-4.268740e-06	-9.791258e-09	-3.103188e+01	-6.426740e+02
5.300000e-07	-4.140722e-06	-9.716203e-09	-3.010125e+01	-6.387139e+02
5.400000e-07	-4.011236e-06	-9.668354e-09	-2.915994e+01	-6.346480e+02
5.500000e-07	-3.880312e-06	-9.608839e-09	-2.820818e+01	-6.304603e+02
5.600000e-07	-3.748035e-06	-9.531334e-09	-2.724658e+01	-6.261346e+02
5.700000e-07	-3.614393e-06	-9.456201e-09	-2.627507e+01	-6.216585e+02
5.800000e-07	-3.479339e-06	-9.388933e-09	-2.529328e+01	-6.170255e+02
5.900000e-07	-3.342981e-06	-9.316146e-09	-2.430201e+01	-6.122366e+02
6.000000e-07	-3.205435e-06	-9.236396e-09	-2.330212e+01	-6.072985e+02
6.100000e-07	-3.066653e-06	-9.168965e-09	-2.229323e+01	-6.022212e+02
6.200000e-07	-2.926611e-06	-9.090199e-09	-2.127519e+01	-5.970136e+02
6.300000e-07	-2.785349e-06	-8.999422e-09	-2.024828e+01	-5.916793e+02
6.400000e-07	-2.643022e-06	-8.910636e-09	-1.921362e+01	-5.862146e+02
6.500000e-07	-2.499759e-06	-8.835885e-09	-1.817216e+01	-5.806073e+02
6.600000e-07	-2.355580e-06	-8.746612e-09	-1.712404e+01	-5.748387e+02
6.700000e-07	-2.210551e-06	-8.644963e-09	-1.606974e+01	-5.688866e+02
6.800000e-07	-2.064680e-06	-8.548580e-09	-1.500932e+01	-5.627303e+02
6.900000e-07	-1.918009e-06	-8.455067e-09	-1.394309e+01	-5.563541e+02
7.000000e-07	-1.770660e-06	-8.355839e-09	-1.287193e+01	-5.497498e+02
7.100000e-07	-1.622746e-06	-8.249566e-09	-1.179665e+01	-5.429166e+02
7.200000e-07	-1.474388e-06	-8.145857e-09	-1.071816e+01	-5.358588e+02
7.300000e-07	-1.325550e-06	-8.031990e-09	-9.636170e+00	-5.285818e+02
7.400000e-07	-1.176191e-06	-7.914229e-09	-8.550394e+00	-5.210871e+02
7.500000e-07	-1.026363e-06	-7.799417e-09	-7.461211e+00	-5.133681e+02
7.600000e-07	-8.761661e-07	-7.682021e-09	-6.369346e+00	-5.054079e+02
7.700000e-07	-7.256809e-07	-7.552265e-09	-5.275384e+00	-4.971794e+02
7.800000e-07	-5.748999e-07	-7.417155e-09	-4.179272e+00	-4.886481e+02
7.900000e-07	-4.239190e-07	-7.285509e-09	-3.081706e+00	-4.797764e+02
8.000000e-07	-2.728150e-07	-7.149524e-09	-1.983247e+00	-4.705291e+02
8.100000e-07	-1.215836e-07	-7.002330e-09	-8.838602e-01	-4.608773e+02
8.200000e-07	2.969773e-08	-6.844165e-09	2.158896e-01	-4.508010e+02
8.300000e-07	1.809398e-07	-6.681671e-09	1.315353e+00	-4.402887e+02
8.400000e-07	3.321312e-07	-6.512490e-09	2.414449e+00	-4.293351e+02
8.500000e-07	4.832113e-07	-6.339282e-09	3.512736e+00	-4.179367e+02
8.600000e-07	6.341020e-07	-6.161291e-09	4.609645e+00	-4.060873e+02
8.700000e-07	7.847661e-07	-5.973003e-09	5.704908e+00	-3.937741e+02
8.800000e-07	9.351883e-07	-5.772938e-09	6.798412e+00	-3.809752e+02
8.900000e-07	1.085297e-06	-5.567334e-09	7.889636e+00	-3.676594e+02
9.000000e-07	1.234942e-06	-5.360305e-09	8.977490e+00	-3.537865e+02
9.100000e-07	1.384072e-06	-5.141218e-09	1.006160e+01	-3.393081e+02
9.200000e-07	1.532663e-06	-4.908562e-09	1.114179e+01	-3.241669e+02
9.300000e-07	1.680721e-06	-4.666237e-09	1.221811e+01	-3.082943e+02
9.400000e-07	1.828229e-06	-4.413663e-09	1.329043e+01	-2.916046e+02
9.500000e-07	1.975138e-06	-4.146775e-09	1.435840e+01	-2.739886e+02
9.600000e-07	2.121330e-06	-3.864053e-09	1.542114e+01	-2.553067e+02
9.700000e-07	2.266684e-06	-3.561267e-09	1.647781e+01	-2.353845e+02
9.800000e-07	2.411254e-06	-3.231483e-09	1.752877e+01	-2.140144e+02
9.900000e-07	2.555026e-06	-2.875703e-09	1.857393e+01	-1.909639e+02
1.000000e-06	2.697850e-06	-2.494997e-09	1.961219e+01	-1.659935e+02
1.010000e-06	2.839636e-06	-2.083385e-09	2.064292e+01	-1.388811e+02
1.020000e-06	2.980278e-06	-1.632474e-09	2.166532e+01	-1.094523e+02
1.030000e-06	3.119736e-06	-1.144859e-09	2.267912e+01	-7.761255e+01
1.040000e-06	3.258061e-06	-6.216813e-10	2.368469e+01	-4.337434e+01
1.050000e-06	3.395161e-06	-6.607899e-11	2.468134e+01	-6.877356e+00
1.060000e-06	3.530962e-06	5.201768e-10	2.566855e+01	3.160443e+01
1.070000e-06	3.665475e-06	1.131068e-09	2.664641e+01	7.166979e+01
1.080000e-06	3.798673e-06	1.758435e-09	2.761470e+01	1.128117e+02
1.090000e-06	3.930492e-06	2.393804e-09	2.857297e+01	1.544506e+02
1.100000e-06	4.060909e-06	3.025711e-09	2.952104e+01	1.959761e+02
1.110000e-06	4.189881e-06	3.644592e-09	3.045861e+01	2.367901e+02
1.120000e-06	4.317395e-06	4.244255e-09	3.138558e+01	2.763480e+02
1.130000e-06	4.443442e-06	4.818487e-09	3.230189e+01	3.141916e+02
1.140000e-06	4.567877e-06	5.359157e-09	3.320647e+01	3.499703e+02
1.150000e-06	4.690699e-06	5.863875e-09	3.409934e+01	3.834509e+02
1.160000e-06	4.811896e-06	6.331014e-09	3.498039e+01	4.145137e+02
1.170000e-06	4.931353e-06	6.762218e-09	3.584879e+01	4.431398e+02
1.180000e-06	5.048959e-06	7.159290e-09	3.670374e+01	4.693909e+02
1.190000e-06	5.164594e-06	7.524180e-09	3.754435e+01	4.933863e+02
1.200000e-06	5.278261e-06	7.856758e-09	3.837066e+01	5.152796e+02
1.210000e-06	5.389966e-06	8.159222e-09	3.918271e+01	5.352395e+02
1.220000e-06	5.499719e-06	8.434560e-09	3.998057e+01	5.534340e+02
1.230000e-06	5.607518e-06	8.685587e-09	4.076422e+01	5.700205e+02
1.240000e-06	5.713303e-06	8.913822e-09	4.153323e+01	5.851412e+02
1.250000e-06	5.816990e-06	9.120189e-09	4.228698e+01	5.989219e+02
1.260000e-06	5.918614e-06	9.307109e-09	4.302575e+01	6.114736e+02
1.270000e-06	6.018167e-06	9.478628e-09	4.374946e+01	6.228964e+02
1.280000e-06	6.115451e-06	9.637007e-09	4.445667e+01	6.332822e+02
1.290000e-06	6.210479e-06	9.780782e-09	4.514748e+01	6.427186e+02
1.300000e-06	6.303402e-06	9.910977e-09	4.582299e+01	6.512903e+02
1.310000e-06	6.394157e-06	1.002926e-08	4.648274e+01	6.590803e+02
1.320000e-06	6.482623e-06	1.013737e-08	4.712585e+01	6.661697e+02
1.330000e-06	6.568829e-06	1.023665e-08	4.775253e+01	6.726364e+02
1.340000e-06	6.652818e-06	1.032556e-08	4.836309e+01	6.785535e+02
1.350000e-06	6.734414e-06	1.040509e-08	4.895626e+01	6.839874e+02
1.360000e-06	6.813558e-06	1.047645e-08	4.953160e+01	6.889960e+02
1.370000e-06	6.890257e-06	1.054401e-08	5.008917e+01	6.936275e+02
1.380000e-06	6.964258e-06	1.060990e-08	5.062713e+01	6.979204e+02
1.390000e-06	7.035597e-06	1.067067e-08	5.114573e+01	7.019036e+02
1.400000e-06	7.104563e-06	1.072568e-08	5.164708e+01	7.055980e+02
1.410000e-06	7.170990e-06	1.077725e-08	5.212997e+01	7.090189e+02
1.420000e-06	7.234753e-06	1.082565e-08	5.259351e+01	7.121782e+02
1.430000e-06	7.296062e-06	1.087003e-08	5.303920e+01	7.150864e+02
1.440000e-06	7.354872e-06	1.091020e-08	5.346672e+01	7.177551e+02
1.450000e-06	7.411044e-06	1.094545e-08	5.387507e+01	7.201969e+02
1.460000e-06	7.464513e-06	1.097602e-08	5.426376e+01	7.224264e+02
1.470000e-06	7.514963e-06	1.100472e-08	5.463051e+01	7.244585e+02
1.480000e-06	7.562362e-06	1.103370e-08	5.497508e+01	7.263079e+02
1.490000e-06	7.607086e-06	1.106097e-08	5.530020e+01	7.279873e+02
1.500000e-06	7.649134e-06	1.108366e-08	5.560587e+01	7.295070e+02
1.510000e-06	7.688406e-06	1.110369e-08	5.589136e+01	7.308748e+02
1.520000e-06	7.725130e-06	1.112378e-08	5.615833e+01	7.320963e+02
1.530000e-06	7.759184e-06	1.114230e-08	5.640589e+01	7.331766e+02
1.540000e-06	7.790401e-06	1.115687e-08	5.663283e+01	7.341215e+02
1.550000e-06	7.818995e-06	1.116711e-08	5.684069e+01	7.349387e+02
1.560000e-06	7.844752e-06	1.117588e-08	5.702793e+01	7.356384e+02
1.570000e-06	7.867609e-06	1.118546e-08	5.719409e+01	7.362331e+02
1.580000e-06	7.887885e-06	1.119430e-08	5.734149e+01	7.367362e+02
1.590000e-06	7.905387e-06	1.120003e-08	5.746873e+01	7.371606e+02
1.600000e-06	7.919915e-06	1.120406e-08	5.757434e+01	7.375164e+02
1.610000e-06	7.931472e-06	1.120847e-08	5.765835e+01	7.378100e+02
1.620000e-06	7.939988e-06	1.121331e-08	5.772026e+01	7.380428e+02
1.630000e-06	7.945683e-06	1.121746e-08	5.776166e+01	7.382119e+02
1.640000e-06	7.948668e-06	1.122075e-08	5.778336e+01	7.383113e+02
1.650000e-06	7.948861e-06	1.122564e-08	5.778476e+01	7.383338e+02
1.660000e-06	7.946450e-06	1.121458e-08	5.776724e+01	7.382730e+02
1.670000e-06	7.941424e-06	1.121122e-08	5.773069e+01	7.381250e+02
1.680000e-06	7.933645e-06	1.121160e-08	5.767415e+01	7.378897e+02
1.690000e-06	7.923239e-06	1.120946e-08	5.759850e+01	7.375705e+02
1.700000e-06	7.910057e-06	1.120888e-08	5.750267e+01	7.371743e+02
1.710000e-06	7.894156e-06	1.121923e-08	5.738708e+01	7.367099e+02
1.720000e-06	7.875912e-06	1.125109e-08	5.725445e+01	7.361867e+02
1.730000e-06	7.855160e-06	1.115013e-08	5.710359e+01	7.356139e+02
1.740000e-06	7.831158e-06	1.107979e-08	5.692911e+01	7.349996e+02
1.750000e-06	7.803453e-06	1.115628e-08	5.672771e+01	7.343509e+02
1.760000e-06	7.772442e-06	1.116044e-08	5.650227e+01	7.336735e+02
1.770000e-06	7.738933e-06	1.112867e-08	5.625868e+01	7.329724e+02
1.780000e-06	7.703286e-06	1.119922e-08	5.599954e+01	7.322511e+02
1.790000e-06	7.665492e-06	1.116143e-08	5.572479e+01	7.315114e+02
1.800000e-06	7.625474e-06	1.094720e-08	5.543388e+01	7.307522e+02
1.810000e-06	7.582889e-06	1.113733e-08	5.512430e+01	7.299686e+02
1.820000e-06	7.537765e-06	1.110543e-08	5.479627e+01	7.291507e+02
1.830000e-06	7.489900e-06	1.104451e-08	5.444831e+01	7.282842e+02
1.840000e-06	7.439100e-06	1.114899e-08	5.407902e+01	7.273510e+02
1.850000e-06	7.385426e-06	1.094875e-08	5.368883e+01	7.263319e+02
1.860000e-06	7.328824e-06	1.109577e-08	5.327736e+01	7.252088e+02
1.870000e-06	7.269710e-06	1.102337e-08	5.284763e+01	7.239686e+02
1.880000e-06	7.208025e-06	1.100304e-08	5.239921e+01	7.226053e+02
1.890000e-06	7.143489e-06	1.103709e-08	5.193006e+01	7.211212e+02
1.900000e-06	7.076309e-06	1.085863e-08	5.144169e+01	7.195270e+02
1.910000e-06	7.006512e-06	1.097771e-08	5.093429e+01	7.178391e+02
1.920000e-06	6.934092e-06	1.090943e-08	5.040783e+01	7.160762e+02
1.930000e-06	6.858970e-06	1.093536e-08	4.986173e+01	7.142555e+02
1.940000e-06	6.781150e-06	1.083050e-08	4.929601e+01	7.123885e+02
1.950000e-06	6.700839e-06	1.077934e-08	4.871218e+01	7.104790e+02
1.960000e-06	6.618119e-06	1.087310e-08	4.811084e+01	7.085224e+02
1.970000e-06	6.533022e-06	1.073575e-08	4.749223e+01	7.065075e+02
1.980000e-06	6.445517e-06	1.077280e-08	4.685610e+01	7.044193e+02
1.990000e-06	6.355775e-06	1.068081e-08	4.620372e+01	7.022431e+02
2.000000e-06	6.263876e-06	1.067953e-08	4.553565e+01	6.999682e+02
2.010000e-06	6.169759e-06	1.062768e-08	4.485146e+01	6.975906e+02
2.020000e-06	6.073423e-06	1.061115e-08	4.415114e+01	6.951130e+02
2.030000e-06	5.974925e-06	1.059717e-08	4.343510e+01	6.925442e+02
2.040000e-06	5.874296e-06	1.049991e-08	4.270357e+01	6.898955e+02
2.050000e-06	5.771515e-06	1.048544e-08	4.195641e+01	6.871776e+02
2.060000e-06	5.666722e-06	1.043871e-08	4.119460e+01	6.843968e+02
2.070000e-06	5.559959e-06	1.043953e-08	4.041849e+01	6.815534e+02
2.080000e-06	5.451180e-06	1.034404e-08	3.962771e+01	6.786410e+02
2.090000e-06	5.340379e-06	1.030761e-08	3.882223e+01	6.756484e+02
2.100000e-06	5.227594e-06	1.026916e-08	3.800233e+01	6.725626e+02
2.110000e-06	5.112804e-06	1.023270e-08	3.716786e+01	6.693721e+02
2.120000e-06	4.996038e-06	1.016810e-08	3.631903e+01	6.660698e+02
2.130000e-06	4.877338e-06	1.011164e-08	3.545613e+01	6.626548e+02
2.140000e-06	4.756721e-06	1.006647e-08	3.457929e+01	6.591315e+02
2.150000e-06	4.634314e-06	1.000148e-08	3.368945e+01	6.555079e+02
2.160000e-06	4.510264e-06	9.956713e-09	3.278765e+01	6.517919e+02
2.170000e-06	4.384670e-06	9.904482e-09	3.187464e+01	6.479884e+02
2.180000e-06	4.257514e-06	9.848184e-09	3.095027e+01	6.440960e+02
2.190000e-06	4.128824e-06	9.768107e-09	3.001475e+01	6.401069e+02
2.200000e-06	3.998644e-06	9.719109e-09	2.906840e+01	6.360077e+02
2.210000e-06	3.867027e-06	9.662330e-09	2.811160e+01	6.317819e+02
2.220000e-06	3.734085e-06	9.595763e-09	2.714517e+01	6.274141e+02
2.230000e-06	3.599882e-06	9.514950e-09	2.616958e+01	6.228933e+02
2.240000e-06	3.464427e-06	9.452573e-09	2.518488e+01	6.182152e+02
2.250000e-06	3.327663e-06	9.387619e-09	2.419066e+01	6.133825e+02
2.260000e-06	3.189505e-06	9.307892e-09	2.318632e+01	6.084034e+02
2.270000e-06	3.050134e-06	9.223875e-09	2.217315e+01	6.032879e+02
2.280000e-06	2.909773e-06	9.146915e-09	2.115278e+01	5.980438e+02
2.290000e-06	2.768362e-06	9.067283e-09	2.012478e+01	5.926728e+02
2.300000e-06	2.625910e-06	8.981844e-09	1.908922e+01	5.871688e+02
2.310000e-06	2.482487e-06	8.902521e-09	1.804660e+01	5.815173e+02
2.320000e-06	2.338110e-06	8.814472e-09	1.699704e+01	5.756983e+02
2.330000e-06	2.192846e-06	8.719775e-09	1.594104e+01	5.696896e+02
2.340000e-06	2.046805e-06	8.623030e-09	1.487938e+01	5.634716e+02
2.350000e-06	1.900063e-06	8.533040e-09	1.381263e+01	5.570306e+02
2.360000e-06	1.752625e-06	8.434557e-09	1.274082e+01	5.503604e+02
2.370000e-06	1.604562e-06	8.323949e-09	1.166447e+01	5.434622e+02
2.380000e-06	1.456030e-06	8.216768e-09	1.058470e+01	5.363411e+02
2.390000e-06	1.307085e-06	8.111618e-09	9.501937e+00	5.290019e+02
2.400000e-06	1.157700e-06	7.995835e-09	8.415978e+00	5.214440e+02
2.410000e-06	1.007802e-06	7.872043e-09	7.326282e+00	5.136581e+02
2.420000e-06	8.574840e-07	7.750371e-09	6.233536e+00	5.056242e+02
2.430000e-06	7.069004e-07	7.625553e-09	5.138858e+00	4.973127e+02
2.440000e-06	5.560692e-07	7.490019e-09	4.042381e+00	4.886877e+02
2.450000e-06	4.050521e-07	7.351016e-09	2.944553e+00	4.797119e+02
2.460000e-06	2.539015e-07	7.210312e-09	1.845754e+00	4.703514e+02
2.470000e-06	1.026901e-07	7.062015e-09	7.465127e-01	4.605798e+02
2.480000e-06	-4.850708e-08	6.906293e-09	-3.526254e-01	4.503795e+02
2.490000e-06	-1.996545e-07	6.748570e-09	-1.451401e+00	4.397413e+02
2.500000e-06	-3.507236e-07	6.583267e-09	-2.549608e+00	4.286609e+02
2.510000e-06	-5.016469e-07	6.406908e-09	-3.646755e+00	4.171343e+02
2.520000e-06	-6.524357e-07	6.223888e-09	-4.742924e+00	4.051538e+02
2.530000e-06	-8.030751e-07	6.036017e-09	-5.838006e+00	3.927042e+02
2.540000e-06	-9.533262e-07	5.838882e-09	-6.930267e+00	3.797610e+02
2.550000e-06	-1.103113e-06	5.629912e-09	-8.019150e+00	3.662903e+02
2.560000e-06	-1.252448e-06	5.413275e-09	-9.104749e+00	3.522495e+02
2.570000e-06	-1.401344e-06	5.190379e-09	-1.018716e+01	3.375878e+02
2.580000e-06	-1.549853e-06	4.956940e-09	-1.126675e+01	3.222451e+02
2.590000e-06	-1.697849e-06	4.711164e-09	-1.234262e+01	3.061484e+02
2.600000e-06	-1.845168e-06	4.452674e-09	-1.341357e+01	2.892062e+02
2.610000e-06	-1.991781e-06	4.179111e-09	-1.447938e+01	2.713012e+02
2.620000e-06	-2.137652e-06	3.888176e-09	-1.553980e+01	2.522841e+02
2.630000e-06	-2.282687e-06	3.578207e-09	-1.659414e+01	2.319705e+02
2.640000e-06	-2.426864e-06	3.244838e-09	-1.764225e+01	2.101445e+02
2.650000e-06	-2.570223e-06	2.883769e-09	-1.868441e+01	1.865695e+02
2.660000e-06	-2.712659e-06	2.494902e-09	-1.971985e+01	1.610080e+02
2.670000e-06	-2.853967e-06	2.074948e-09	-2.074710e+01	1.332484e+02
2.680000e-06	-2.994214e-06	1.619185e-09	-2.176663e+01	1.031361e+02
2.690000e-06	-3.133378e-06	1.123700e-09	-2.277830e+01	7.060423e+01
2.700000e-06	-3.271289e-06	5.893132e-10	-2.378085e+01	3.570034e+01
2.710000e-06	-3.407904e-06	2.243145e-11	-2.477398e+01	-1.397715e+00
2.720000e-06	-3.543301e-06	-5.719011e-10	-2.575826e+01	-4.037824e+01
2.730000e-06	-3.677501e-06	-1.190149e-09	-2.673383e+01	-8.080701e+01
2.740000e-06	-3.810385e-06	-1.823210e-09	-2.769984e+01	-1.221524e+02
2.750000e-06	-3.941852e-06	-2.461738e-09	-2.865555e+01	-1.638217e+02
2.760000e-06	-4.071923e-06	-3.094458e-09	-2.960111e+01	-2.052035e+02
2.770000e-06	-4.200622e-06	-3.714109e-09	-3.053669e+01	-2.457112e+02
2.780000e-06	-4.327863e-06	-4.314914e-09	-3.146168e+01	-2.848218e+02
2.790000e-06	-4.453589e-06	-4.888681e-09	-3.237565e+01	-3.221064e+02
2.800000e-06	-4.577666e-06	-5.429938e-09	-3.327764e+01	-3.572474e+02
2.810000e-06	-4.700083e-06	-5.931673e-09	-3.416756e+01	-3.900449e+02
2.820000e-06	-4.820863e-06	-6.396762e-09	-3.504557e+01	-4.204096e+02
2.830000e-06	-4.939803e-06	-6.826899e-09	-3.591022e+01	-4.483481e+02
2.840000e-06	-5.056811e-06	-7.223008e-09	-3.676082e+01	-4.739408e+02
2.850000e-06	-5.171811e-06	-7.585823e-09	-3.759681e+01	-4.973192e+02
2.860000e-06	-5.284684e-06	-7.913705e-09	-3.841735e+01	-5.186429e+02
2.870000e-06	-5.395459e-06	-8.212388e-09	-3.922264e+01	-5.380818e+02
2.880000e-06	-5.504282e-06	-8.484238e-09	-4.001373e+01	-5.558016e+02
2.890000e-06	-5.611280e-06	-8.731416e-09	-4.079157e+01	-5.719557e+02
2.900000e-06	-5.716348e-06	-8.956317e-09	-4.155536e+01	-5.866816e+02
2.910000e-06	-5.819318e-06	-9.162068e-09	-4.230391e+01	-6.001006e+02
2.920000e-06	-5.920098e-06	-9.350312e-09	-4.303653e+01	-6.123202e+02
2.930000e-06	-6.018753e-06	-9.521094e-09	-4.375372e+01	-6.234377e+02
2.940000e-06	-6.115376e-06	-9.678106e-09	-4.445612e+01	-6.335437e+02
