# Temperatura_=_20.0
# Concentracion g/m^3_=_9900.0
# C_Vs_to_Am_M_A/Vsm_=_65563218390.804596
# pendiente_HvsI_1/m_=_3716.3
# ordenada_HvsI_A/m_=_1297.0
# frecuencia_Hz_=_301708.3371405774

Tiempo_(s)	Campo_(V.s)	Magnetizacion_(V.s)	Campo_(kA/m)	Magnetizacion_(A/m)
0.000000e+00	-7.929073e-06	-1.105100e-08	-5.755704e+01	-7.220938e+02
1.000000e-08	-7.926791e-06	-1.105299e-08	-5.754048e+01	-7.220811e+02
2.000000e-08	-7.921875e-06	-1.104896e-08	-5.750480e+01	-7.219909e+02
3.000000e-08	-7.914463e-06	-1.104473e-08	-5.745099e+01	-7.218176e+02
4.000000e-08	-7.904338e-06	-1.104058e-08	-5.737749e+01	-7.215581e+02
5.000000e-08	-7.891295e-06	-1.103536e-08	-5.728281e+01	-7.212128e+02
6.000000e-08	-7.875355e-06	-1.102426e-08	-5.716710e+01	-7.207859e+02
7.000000e-08	-7.856806e-06	-1.100492e-08	-5.703246e+01	-7.202853e+02
8.000000e-08	-7.835894e-06	-1.099791e-08	-5.688066e+01	-7.197210e+02
9.000000e-08	-7.812271e-06	-1.103408e-08	-5.670918e+01	-7.191036e+02
1.000000e-07	-7.785455e-06	-1.102456e-08	-5.651452e+01	-7.184432e+02
1.100000e-07	-7.755602e-06	-1.098586e-08	-5.629782e+01	-7.177481e+02
1.200000e-07	-7.722983e-06	-1.096415e-08	-5.606104e+01	-7.170239e+02
1.300000e-07	-7.687604e-06	-1.094063e-08	-5.580422e+01	-7.162739e+02
1.400000e-07	-7.649922e-06	-1.090706e-08	-5.553069e+01	-7.154987e+02
1.500000e-07	-7.610171e-06	-1.092370e-08	-5.524214e+01	-7.146969e+02
1.600000e-07	-7.567832e-06	-1.097177e-08	-5.493480e+01	-7.138646e+02
1.700000e-07	-7.522732e-06	-1.086585e-08	-5.460742e+01	-7.129959e+02
1.800000e-07	-7.475024e-06	-1.086102e-08	-5.426111e+01	-7.120825e+02
1.900000e-07	-7.424331e-06	-1.088894e-08	-5.389313e+01	-7.111141e+02
2.000000e-07	-7.370617e-06	-1.084669e-08	-5.350322e+01	-7.100785e+02
2.100000e-07	-7.314153e-06	-1.085910e-08	-5.309335e+01	-7.089631e+02
2.200000e-07	-7.254996e-06	-1.080489e-08	-5.266393e+01	-7.077560e+02
2.300000e-07	-7.193301e-06	-1.077209e-08	-5.221608e+01	-7.064477e+02
2.400000e-07	-7.128980e-06	-1.075074e-08	-5.174918e+01	-7.050329e+02
2.500000e-07	-7.061978e-06	-1.073335e-08	-5.126281e+01	-7.035108e+02
2.600000e-07	-6.992468e-06	-1.072998e-08	-5.075824e+01	-7.018858e+02
2.700000e-07	-6.920339e-06	-1.068039e-08	-5.023466e+01	-7.001657e+02
2.800000e-07	-6.845438e-06	-1.064176e-08	-4.969095e+01	-6.983603e+02
2.900000e-07	-6.767905e-06	-1.061144e-08	-4.912814e+01	-6.964788e+02
3.000000e-07	-6.687777e-06	-1.061250e-08	-4.854649e+01	-6.945275e+02
3.100000e-07	-6.605132e-06	-1.058045e-08	-4.794657e+01	-6.925084e+02
3.200000e-07	-6.520285e-06	-1.051267e-08	-4.733067e+01	-6.904191e+02
3.300000e-07	-6.433328e-06	-1.049200e-08	-4.669945e+01	-6.882534e+02
3.400000e-07	-6.344081e-06	-1.045379e-08	-4.605161e+01	-6.860040e+02
3.500000e-07	-6.252516e-06	-1.042816e-08	-4.538694e+01	-6.836643e+02
3.600000e-07	-6.158768e-06	-1.039134e-08	-4.470642e+01	-6.812316e+02
3.700000e-07	-6.062816e-06	-1.035061e-08	-4.400991e+01	-6.787079e+02
3.800000e-07	-5.964525e-06	-1.030134e-08	-4.329642e+01	-6.761000e+02
3.900000e-07	-5.864028e-06	-1.025510e-08	-4.256691e+01	-6.734181e+02
4.000000e-07	-5.761530e-06	-1.023030e-08	-4.182287e+01	-6.706730e+02
4.100000e-07	-5.656941e-06	-1.018808e-08	-4.106366e+01	-6.678729e+02
4.200000e-07	-5.550155e-06	-1.013524e-08	-4.028851e+01	-6.650209e+02
4.300000e-07	-5.441360e-06	-1.006922e-08	-3.949876e+01	-6.621134e+02
4.400000e-07	-5.330691e-06	-1.003403e-08	-3.869542e+01	-6.591404e+02
4.500000e-07	-5.218071e-06	-9.999440e-09	-3.787791e+01	-6.560873e+02
4.600000e-07	-5.103438e-06	-9.947274e-09	-3.704579e+01	-6.529380e+02
4.700000e-07	-4.986773e-06	-9.889968e-09	-3.619892e+01	-6.496789e+02
4.800000e-07	-4.868200e-06	-9.842006e-09	-3.533821e+01	-6.463012e+02
4.900000e-07	-4.747842e-06	-9.794576e-09	-3.446452e+01	-6.428032e+02
5.000000e-07	-4.625673e-06	-9.737378e-09	-3.357770e+01	-6.391895e+02
5.100000e-07	-4.501785e-06	-9.686811e-09	-3.267840e+01	-6.354694e+02
5.200000e-07	-4.376388e-06	-9.625279e-09	-3.176815e+01	-6.316532e+02
5.300000e-07	-4.249461e-06	-9.555625e-09	-3.084678e+01	-6.277487e+02
5.400000e-07	-4.121006e-06	-9.489600e-09	-2.991433e+01	-6.237584e+02
5.500000e-07	-3.991024e-06	-9.439051e-09	-2.897079e+01	-6.196775e+02
5.600000e-07	-3.859542e-06	-9.376801e-09	-2.801637e+01	-6.154950e+02
5.700000e-07	-3.726696e-06	-9.297062e-09	-2.705204e+01	-6.111955e+02
5.800000e-07	-3.592517e-06	-9.224325e-09	-2.607803e+01	-6.067627e+02
5.900000e-07	-3.457032e-06	-9.160105e-09	-2.509455e+01	-6.021832e+02
6.000000e-07	-3.320353e-06	-9.091493e-09	-2.410240e+01	-5.974489e+02
6.100000e-07	-3.182478e-06	-9.013696e-09	-2.310157e+01	-5.925581e+02
6.200000e-07	-3.043203e-06	-8.939146e-09	-2.209057e+01	-5.875147e+02
6.300000e-07	-2.902553e-06	-8.856608e-09	-2.106959e+01	-5.823255e+02
6.400000e-07	-2.760834e-06	-8.769079e-09	-2.004086e+01	-5.769967e+02
6.500000e-07	-2.618174e-06	-8.689067e-09	-1.900529e+01	-5.715304e+02
6.600000e-07	-2.474444e-06	-8.609341e-09	-1.796196e+01	-5.659224e+02
6.700000e-07	-2.329703e-06	-8.515858e-09	-1.691128e+01	-5.601617e+02
6.800000e-07	-2.184099e-06	-8.417210e-09	-1.585435e+01	-5.542319e+02
6.900000e-07	-2.037700e-06	-8.327491e-09	-1.479164e+01	-5.481142e+02
7.000000e-07	-1.890613e-06	-8.235982e-09	-1.372394e+01	-5.417910e+02
7.100000e-07	-1.742943e-06	-8.133931e-09	-1.265200e+01	-5.352488e+02
7.200000e-07	-1.594768e-06	-8.027445e-09	-1.157640e+01	-5.284802e+02
7.300000e-07	-1.446124e-06	-7.921350e-09	-1.049740e+01	-5.214832e+02
7.400000e-07	-1.297001e-06	-7.809470e-09	-9.414915e+00	-5.142587e+02
7.500000e-07	-1.147388e-06	-7.694954e-09	-8.328878e+00	-5.068071e+02
7.600000e-07	-9.973383e-07	-7.580563e-09	-7.239666e+00	-4.991240e+02
7.700000e-07	-8.469332e-07	-7.459470e-09	-6.147878e+00	-4.911970e+02
7.800000e-07	-6.961922e-07	-7.330560e-09	-5.053650e+00	-4.830049e+02
7.900000e-07	-5.452412e-07	-7.199817e-09	-3.957899e+00	-4.745180e+02
8.000000e-07	-3.941343e-07	-7.069532e-09	-2.861016e+00	-4.657021e+02
8.100000e-07	-2.429131e-07	-6.930738e-09	-1.763303e+00	-4.565225e+02
8.200000e-07	-9.164065e-08	-6.781880e-09	-6.652184e-01	-4.469490e+02
8.300000e-07	5.971332e-08	-6.627480e-09	4.334583e-01	-4.369587e+02
8.400000e-07	2.110655e-07	-6.468365e-09	1.532122e+00	-4.265383e+02
8.500000e-07	3.623400e-07	-6.304153e-09	2.630222e+00	-4.156819e+02
8.600000e-07	5.135165e-07	-6.133542e-09	3.727610e+00	-4.043887e+02
8.700000e-07	6.645101e-07	-5.955867e-09	4.823671e+00	-3.926575e+02
8.800000e-07	8.152667e-07	-5.767924e-09	5.918011e+00	-3.804827e+02
8.900000e-07	9.657236e-07	-5.573269e-09	7.010176e+00	-3.678501e+02
9.000000e-07	1.115781e-06	-5.374434e-09	8.099440e+00	-3.547350e+02
9.100000e-07	1.265408e-06	-5.169290e-09	9.185578e+00	-3.411017e+02
9.200000e-07	1.414595e-06	-4.954776e-09	1.026852e+01	-3.269040e+02
9.300000e-07	1.563325e-06	-4.728891e-09	1.134816e+01	-3.120861e+02
9.400000e-07	1.711538e-06	-4.494072e-09	1.242403e+01	-2.965816e+02
9.500000e-07	1.859199e-06	-4.248157e-09	1.349590e+01	-2.803111e+02
9.600000e-07	2.006242e-06	-3.988905e-09	1.456329e+01	-2.631780e+02
9.700000e-07	2.152571e-06	-3.714727e-09	1.562549e+01	-2.450630e+02
9.800000e-07	2.298128e-06	-3.419394e-09	1.668208e+01	-2.258203e+02
9.900000e-07	2.442797e-06	-3.103217e-09	1.773224e+01	-2.052768e+02
1.000000e-06	2.586496e-06	-2.767271e-09	1.877535e+01	-1.832368e+02
1.010000e-06	2.729271e-06	-2.405489e-09	1.981174e+01	-1.594942e+02
1.020000e-06	2.871068e-06	-2.013669e-09	2.084105e+01	-1.338519e+02
1.030000e-06	3.011789e-06	-1.589651e-09	2.186254e+01	-1.061463e+02
1.040000e-06	3.151359e-06	-1.134884e-09	2.287567e+01	-7.627552e+01
1.050000e-06	3.289705e-06	-6.463446e-10	2.387993e+01	-4.422558e+01
1.060000e-06	3.426778e-06	-1.261180e-10	2.487494e+01	-1.009063e+01
1.070000e-06	3.562534e-06	4.231608e-10	2.586039e+01	2.591648e+01
1.080000e-06	3.696993e-06	9.981443e-10	2.683643e+01	6.346629e+01
1.090000e-06	3.830135e-06	1.587944e-09	2.780290e+01	1.021282e+02
1.100000e-06	3.961937e-06	2.182841e-09	2.875965e+01	1.413973e+02
1.110000e-06	4.092331e-06	2.778847e-09	2.970618e+01	1.807304e+02
1.120000e-06	4.221183e-06	3.370903e-09	3.064152e+01	2.195847e+02
1.130000e-06	4.348508e-06	3.947967e-09	3.156577e+01	2.574556e+02
1.140000e-06	4.474378e-06	4.500580e-09	3.247945e+01	2.939078e+02
1.150000e-06	4.598719e-06	5.025325e-09	3.338205e+01	3.285974e+02
1.160000e-06	4.721467e-06	5.520492e-09	3.427307e+01	3.612818e+02
1.170000e-06	4.842537e-06	5.982549e-09	3.515192e+01	3.918192e+02
1.180000e-06	4.961771e-06	6.410341e-09	3.601744e+01	4.201581e+02
1.190000e-06	5.079103e-06	6.806742e-09	3.686915e+01	4.463212e+02
1.200000e-06	5.194501e-06	7.172484e-09	3.770682e+01	4.703859e+02
1.210000e-06	5.307892e-06	7.506655e-09	3.852992e+01	4.924651e+02
1.220000e-06	5.419314e-06	7.815337e-09	3.933873e+01	5.126911e+02
1.230000e-06	5.528890e-06	8.098342e-09	4.013415e+01	5.312022e+02
1.240000e-06	5.636573e-06	8.354375e-09	4.091582e+01	5.481349e+02
1.250000e-06	5.742199e-06	8.584471e-09	4.168256e+01	5.636184e+02
1.260000e-06	5.845648e-06	8.796039e-09	4.243349e+01	5.777733e+02
1.270000e-06	5.947011e-06	8.991243e-09	4.316928e+01	5.907103e+02
1.280000e-06	6.046268e-06	9.169773e-09	4.388979e+01	6.025312e+02
1.290000e-06	6.143242e-06	9.333614e-09	4.459372e+01	6.133290e+02
1.300000e-06	6.238002e-06	9.482985e-09	4.528158e+01	6.231890e+02
1.310000e-06	6.330620e-06	9.621609e-09	4.595389e+01	6.321895e+02
1.320000e-06	6.421045e-06	9.749096e-09	4.661029e+01	6.404026e+02
1.330000e-06	6.509179e-06	9.866373e-09	4.725005e+01	6.478958e+02
1.340000e-06	6.595073e-06	9.971063e-09	4.787356e+01	6.547334e+02
1.350000e-06	6.678751e-06	1.006333e-08	4.848097e+01	6.609774e+02
1.360000e-06	6.760022e-06	1.014730e-08	4.907092e+01	6.666880e+02
1.370000e-06	6.838801e-06	1.022356e-08	4.964277e+01	6.719237e+02
1.380000e-06	6.915045e-06	1.029439e-08	5.019623e+01	6.767398e+02
1.390000e-06	6.988662e-06	1.036089e-08	5.073061e+01	6.811866e+02
1.400000e-06	7.059709e-06	1.042374e-08	5.124634e+01	6.853076e+02
1.410000e-06	7.128287e-06	1.048262e-08	5.174415e+01	6.891379e+02
1.420000e-06	7.194280e-06	1.053641e-08	5.222319e+01	6.927028e+02
1.430000e-06	7.257639e-06	1.058674e-08	5.268311e+01	6.960195e+02
1.440000e-06	7.318503e-06	1.063280e-08	5.312493e+01	6.990975e+02
1.450000e-06	7.376865e-06	1.067574e-08	5.354857e+01	7.019425e+02
1.460000e-06	7.432609e-06	1.071623e-08	5.395322e+01	7.045585e+02
1.470000e-06	7.485538e-06	1.075065e-08	5.433743e+01	7.069508e+02
1.480000e-06	7.535448e-06	1.078110e-08	5.469973e+01	7.091279e+02
1.490000e-06	7.582462e-06	1.080942e-08	5.504100e+01	7.111018e+02
1.500000e-06	7.626801e-06	1.083514e-08	5.536286e+01	7.128873e+02
1.510000e-06	7.668432e-06	1.085924e-08	5.566505e+01	7.145006e+02
1.520000e-06	7.707308e-06	1.088111e-08	5.594725e+01	7.159570e+02
1.530000e-06	7.743512e-06	1.090113e-08	5.621006e+01	7.172697e+02
1.540000e-06	7.777002e-06	1.092000e-08	5.645316e+01	7.184482e+02
1.550000e-06	7.807748e-06	1.093773e-08	5.667635e+01	7.194992e+02
1.560000e-06	7.835828e-06	1.095189e-08	5.688018e+01	7.204268e+02
1.570000e-06	7.861052e-06	1.096202e-08	5.706328e+01	7.212346e+02
1.580000e-06	7.883428e-06	1.097182e-08	5.722571e+01	7.219271e+02
1.590000e-06	7.903122e-06	1.097962e-08	5.736867e+01	7.225106e+02
1.600000e-06	7.919997e-06	1.098550e-08	5.749116e+01	7.229938e+02
1.610000e-06	7.933989e-06	1.099171e-08	5.759273e+01	7.233866e+02
1.620000e-06	7.944963e-06	1.099746e-08	5.767239e+01	7.236993e+02
1.630000e-06	7.952917e-06	1.100215e-08	5.773013e+01	7.239402e+02
1.640000e-06	7.958073e-06	1.100686e-08	5.776756e+01	7.241145e+02
1.650000e-06	7.960443e-06	1.101251e-08	5.778476e+01	7.242237e+02
1.660000e-06	7.960038e-06	1.101415e-08	5.778182e+01	7.242653e+02
1.670000e-06	7.957018e-06	1.100815e-08	5.775990e+01	7.242339e+02
1.680000e-06	7.951323e-06	1.100434e-08	5.771856e+01	7.241235e+02
1.690000e-06	7.942969e-06	1.100294e-08	5.765791e+01	7.239290e+02
1.700000e-06	7.931997e-06	1.100154e-08	5.757827e+01	7.236480e+02
1.710000e-06	7.918197e-06	1.099969e-08	5.747809e+01	7.232818e+02
1.720000e-06	7.901744e-06	1.100354e-08	5.735866e+01	7.228358e+02
1.730000e-06	7.883014e-06	1.100471e-08	5.722270e+01	7.223184e+02
1.740000e-06	7.861643e-06	1.094410e-08	5.706757e+01	7.217399e+02
1.750000e-06	7.836821e-06	1.093068e-08	5.688739e+01	7.211110e+02
1.760000e-06	7.808362e-06	1.095080e-08	5.668080e+01	7.204414e+02
1.770000e-06	7.776849e-06	1.094261e-08	5.645206e+01	7.197387e+02
1.780000e-06	7.742971e-06	1.094575e-08	5.620613e+01	7.190080e+02
1.790000e-06	7.706883e-06	1.096494e-08	5.594417e+01	7.182518e+02
1.800000e-06	7.668506e-06	1.089788e-08	5.566559e+01	7.174704e+02
1.810000e-06	7.627866e-06	1.086783e-08	5.537059e+01	7.166615e+02
1.820000e-06	7.584798e-06	1.092956e-08	5.505796e+01	7.158209e+02
1.830000e-06	7.539109e-06	1.086550e-08	5.472630e+01	7.149420e+02
1.840000e-06	7.490584e-06	1.089469e-08	5.437406e+01	7.140160e+02
1.850000e-06	7.439162e-06	1.085071e-08	5.400079e+01	7.130321e+02
1.860000e-06	7.384836e-06	1.078989e-08	5.360644e+01	7.119779e+02
1.870000e-06	7.327676e-06	1.085893e-08	5.319151e+01	7.108407e+02
1.880000e-06	7.268050e-06	1.081180e-08	5.275869e+01	7.096092e+02
1.890000e-06	7.205714e-06	1.082225e-08	5.230619e+01	7.082748e+02
1.900000e-06	7.140559e-06	1.075976e-08	5.183323e+01	7.068331e+02
1.910000e-06	7.072775e-06	1.071203e-08	5.134119e+01	7.052849e+02
1.920000e-06	7.002268e-06	1.073643e-08	5.082938e+01	7.036353e+02
1.930000e-06	6.929184e-06	1.070739e-08	5.029886e+01	7.018931e+02
1.940000e-06	6.853407e-06	1.071816e-08	4.974880e+01	7.000680e+02
1.950000e-06	6.774871e-06	1.061261e-08	4.917870e+01	6.981687e+02
1.960000e-06	6.693929e-06	1.060432e-08	4.859115e+01	6.962006e+02
1.970000e-06	6.610725e-06	1.060135e-08	4.798717e+01	6.941645e+02
1.980000e-06	6.525062e-06	1.056634e-08	4.736535e+01	6.920569e+02
1.990000e-06	6.436949e-06	1.054996e-08	4.672574e+01	6.898711e+02
2.000000e-06	6.346688e-06	1.046336e-08	4.607053e+01	6.875997e+02
2.010000e-06	6.254243e-06	1.044501e-08	4.539947e+01	6.852370e+02
2.020000e-06	6.159437e-06	1.040224e-08	4.471128e+01	6.827813e+02
2.030000e-06	6.062439e-06	1.040569e-08	4.400717e+01	6.802359e+02
2.040000e-06	5.963457e-06	1.035709e-08	4.328866e+01	6.776086e+02
2.050000e-06	5.862297e-06	1.028957e-08	4.255434e+01	6.749101e+02
2.060000e-06	5.758898e-06	1.024034e-08	4.180377e+01	6.721507e+02
2.070000e-06	5.653509e-06	1.021649e-08	4.103875e+01	6.693377e+02
2.080000e-06	5.546223e-06	1.020757e-08	4.025997e+01	6.664725e+02
2.090000e-06	5.436961e-06	1.013667e-08	3.946684e+01	6.635500e+02
2.100000e-06	5.325611e-06	1.008017e-08	3.865854e+01	6.605586e+02
2.110000e-06	5.212286e-06	1.002691e-08	3.783592e+01	6.574830e+02
2.120000e-06	5.096974e-06	1.000152e-08	3.699887e+01	6.543076e+02
2.130000e-06	4.979556e-06	9.953348e-09	3.614654e+01	6.510195e+02
2.140000e-06	4.860157e-06	9.901115e-09	3.527982e+01	6.476117e+02
2.150000e-06	4.739007e-06	9.829098e-09	3.440040e+01	6.440842e+02
2.160000e-06	4.616208e-06	9.762676e-09	3.350900e+01	6.404431e+02
2.170000e-06	4.491804e-06	9.720082e-09	3.260595e+01	6.366982e+02
2.180000e-06	4.365740e-06	9.682419e-09	3.169085e+01	6.328595e+02
2.190000e-06	4.238003e-06	9.619410e-09	3.076361e+01	6.289337e+02
2.200000e-06	4.108818e-06	9.535354e-09	2.982586e+01	6.249216e+02
2.210000e-06	3.978239e-06	9.474598e-09	2.887799e+01	6.208167e+02
2.220000e-06	3.846353e-06	9.427116e-09	2.792063e+01	6.166066e+02
2.230000e-06	3.713048e-06	9.374144e-09	2.695297e+01	6.122753e+02
2.240000e-06	3.578284e-06	9.296301e-09	2.597472e+01	6.078071e+02
2.250000e-06	3.442253e-06	9.217688e-09	2.498727e+01	6.031895e+02
2.260000e-06	3.305023e-06	9.143505e-09	2.399112e+01	5.984161e+02
2.270000e-06	3.166575e-06	9.077413e-09	2.298613e+01	5.934868e+02
2.280000e-06	3.026963e-06	9.008708e-09	2.197269e+01	5.884064e+02
2.290000e-06	2.886187e-06	8.928488e-09	2.095079e+01	5.831820e+02
2.300000e-06	2.744145e-06	8.832614e-09	1.991972e+01	5.778189e+02
2.310000e-06	2.601084e-06	8.745153e-09	1.888124e+01	5.723180e+02
2.320000e-06	2.457146e-06	8.672784e-09	1.783639e+01	5.666732e+02
2.330000e-06	2.312283e-06	8.594521e-09	1.678483e+01	5.608721e+02
2.340000e-06	2.166629e-06	8.497291e-09	1.572753e+01	5.548972e+02
2.350000e-06	2.020278e-06	8.392920e-09	1.466518e+01	5.487298e+02
2.360000e-06	1.873208e-06	8.296736e-09	1.359760e+01	5.423530e+02
2.370000e-06	1.725507e-06	8.203045e-09	1.252543e+01	5.357548e+02
2.380000e-06	1.577310e-06	8.104997e-09	1.144967e+01	5.289293e+02
2.390000e-06	1.428622e-06	7.997410e-09	1.037035e+01	5.218754e+02
2.400000e-06	1.279332e-06	7.880470e-09	9.286656e+00	5.145943e+02
2.410000e-06	1.129477e-06	7.761622e-09	8.198857e+00	5.070856e+02
2.420000e-06	9.792051e-07	7.648647e-09	7.108038e+00	4.993432e+02
2.430000e-06	8.286332e-07	7.534656e-09	6.015039e+00	4.913524e+02
2.440000e-06	6.777803e-07	7.407491e-09	4.919999e+00	4.830897e+02
2.450000e-06	5.266927e-07	7.267165e-09	3.823256e+00	4.745240e+02
2.460000e-06	3.754386e-07	7.129038e-09	2.725305e+00	4.656205e+02
2.470000e-06	2.240568e-07	6.995847e-09	1.626426e+00	4.563451e+02
2.480000e-06	7.261083e-08	6.853422e-09	5.270812e-01	4.466693e+02
2.490000e-06	-7.885281e-08	6.697885e-09	-5.723916e-01	4.365726e+02
2.500000e-06	-2.302662e-07	6.532648e-09	-1.671500e+00	4.260436e+02
2.510000e-06	-3.815542e-07	6.363304e-09	-2.769698e+00	4.150781e+02
2.520000e-06	-5.327270e-07	6.192709e-09	-3.867059e+00	4.036757e+02
2.530000e-06	-6.837141e-07	6.016016e-09	-4.963073e+00	3.918346e+02
2.540000e-06	-8.344426e-07	5.827617e-09	-6.057209e+00	3.795472e+02
2.550000e-06	-9.848941e-07	5.628405e-09	-7.149334e+00	3.667968e+02
2.560000e-06	-1.134942e-06	5.422961e-09	-8.238533e+00	3.535561e+02
2.570000e-06	-1.284497e-06	5.213504e-09	-9.324152e+00	3.397865e+02
2.580000e-06	-1.433525e-06	4.998319e-09	-1.040594e+01	3.254395e+02
2.590000e-06	-1.582002e-06	4.769932e-09	-1.148373e+01	3.104568e+02
2.600000e-06	-1.729902e-06	4.525219e-09	-1.255734e+01	2.947690e+02
2.610000e-06	-1.877210e-06	4.270349e-09	-1.362665e+01	2.782928e+02
2.620000e-06	-2.023873e-06	4.007118e-09	-1.469127e+01	2.609265e+02
2.630000e-06	-2.169781e-06	3.728570e-09	-1.575041e+01	2.425444e+02
2.640000e-06	-2.314940e-06	3.430014e-09	-1.680412e+01	2.229939e+02
2.650000e-06	-2.459338e-06	3.109209e-09	-1.785230e+01	2.020954e+02
2.660000e-06	-2.602835e-06	2.765725e-09	-1.889395e+01	1.796492e+02
2.670000e-06	-2.745327e-06	2.398737e-09	-1.992830e+01	1.554495e+02
2.680000e-06	-2.886758e-06	2.004155e-09	-2.095494e+01	1.293049e+02
2.690000e-06	-3.026973e-06	1.575472e-09	-2.197276e+01	1.010646e+02
2.700000e-06	-3.165958e-06	1.110548e-09	-2.298165e+01	7.064660e+01
2.710000e-06	-3.303794e-06	6.112140e-10	-2.398220e+01	3.806215e+01
2.720000e-06	-3.440413e-06	8.245385e-11	-2.497392e+01	3.434638e+00
2.730000e-06	-3.575759e-06	-4.708252e-10	-2.595639e+01	-3.299321e+01
2.740000e-06	-3.709809e-06	-1.049184e-09	-2.692946e+01	-7.086472e+01
2.750000e-06	-3.842519e-06	-1.645940e-09	-2.789280e+01	-1.097278e+02
2.760000e-06	-3.973843e-06	-2.250352e-09	-2.884608e+01	-1.490644e+02
2.770000e-06	-4.103786e-06	-2.850662e-09	-2.978933e+01	-1.883277e+02
2.780000e-06	-4.232334e-06	-3.440424e-09	-3.072246e+01	-2.269810e+02
2.790000e-06	-4.359421e-06	-4.015748e-09	-3.164499e+01	-2.645346e+02
2.800000e-06	-4.484904e-06	-4.570847e-09	-3.255586e+01	-3.005744e+02
2.810000e-06	-4.608762e-06	-5.100166e-09	-3.345495e+01	-3.347813e+02
2.820000e-06	-4.731064e-06	-5.593059e-09	-3.434273e+01	-3.669384e+02
2.830000e-06	-4.851693e-06	-6.050324e-09	-3.521838e+01	-3.969277e+02
2.840000e-06	-4.970456e-06	-6.475005e-09	-3.608048e+01	-4.247179e+02
2.850000e-06	-5.087219e-06	-6.870149e-09	-3.692806e+01	-4.503473e+02
2.860000e-06	-5.201908e-06	-7.235828e-09	-3.776059e+01	-4.739039e+02
2.870000e-06	-5.314464e-06	-7.567277e-09	-3.857763e+01	-4.955069e+02
2.880000e-06	-5.424897e-06	-7.868850e-09	-3.937926e+01	-5.152910e+02
2.890000e-06	-5.533376e-06	-8.144673e-09	-4.016671e+01	-5.333948e+02
2.900000e-06	-5.640059e-06	-8.397963e-09	-4.094112e+01	-5.499532e+02
2.910000e-06	-5.744886e-06	-8.631768e-09	-4.170206e+01	-5.650936e+02
2.920000e-06	-5.847600e-06	-8.848072e-09	-4.244766e+01	-5.789338e+02
2.930000e-06	-5.948103e-06	-9.044529e-09	-4.317721e+01	-5.915825e+02
2.940000e-06	-6.046500e-06	-9.220395e-09	-4.389147e+01	-6.031390e+02
