# Temperatura_=_20.0
# Concentracion g/m^3_=_9900.0
# C_Vs_to_Am_M_A/Vsm_=_65563218390.804596
# pendiente_HvsI_1/m_=_3716.3
# ordenada_HvsI_A/m_=_1297.0
# frecuencia_Hz_=_301724.9722696364

Tiempo_(s)	Campo_(V.s)	Magnetizacion_(V.s)	Campo_(kA/m)	Magnetizacion_(A/m)
0.000000e+00	-7.916525e-06	-8.981154e-09	-5.753918e+01	-5.862032e+02
1.000000e-08	-7.912313e-06	-8.979020e-09	-5.750857e+01	-5.860872e+02
2.000000e-08	-7.905607e-06	-8.973525e-09	-5.745982e+01	-5.859047e+02
3.000000e-08	-7.896221e-06	-8.968984e-09	-5.739161e+01	-5.856476e+02
4.000000e-08	-7.884042e-06	-8.962158e-09	-5.730309e+01	-5.853120e+02
5.000000e-08	-7.868957e-06	-8.952691e-09	-5.719345e+01	-5.848992e+02
6.000000e-08	-7.851157e-06	-8.939249e-09	-5.706407e+01	-5.844156e+02
7.000000e-08	-7.831052e-06	-8.916304e-09	-5.691795e+01	-5.838720e+02
8.000000e-08	-7.808358e-06	-8.930957e-09	-5.675300e+01	-5.832814e+02
9.000000e-08	-7.782529e-06	-8.971718e-09	-5.656526e+01	-5.826569e+02
1.000000e-07	-7.753644e-06	-8.938718e-09	-5.635532e+01	-5.820091e+02
1.100000e-07	-7.721947e-06	-8.898276e-09	-5.612494e+01	-5.813454e+02
1.200000e-07	-7.687431e-06	-8.878757e-09	-5.587408e+01	-5.806682e+02
1.300000e-07	-7.650458e-06	-8.855093e-09	-5.560535e+01	-5.799758e+02
1.400000e-07	-7.611466e-06	-8.838599e-09	-5.532194e+01	-5.792619e+02
1.500000e-07	-7.570087e-06	-8.867075e-09	-5.502119e+01	-5.785174e+02
1.600000e-07	-7.525813e-06	-8.866457e-09	-5.469939e+01	-5.777309e+02
1.700000e-07	-7.478920e-06	-8.761076e-09	-5.435856e+01	-5.768897e+02
1.800000e-07	-7.429258e-06	-8.794626e-09	-5.399761e+01	-5.759816e+02
1.900000e-07	-7.376525e-06	-8.777879e-09	-5.361433e+01	-5.749951e+02
2.000000e-07	-7.320985e-06	-8.730915e-09	-5.321066e+01	-5.739214e+02
2.100000e-07	-7.262732e-06	-8.743932e-09	-5.278726e+01	-5.727548e+02
2.200000e-07	-7.201929e-06	-8.686710e-09	-5.234533e+01	-5.714939e+02
2.300000e-07	-7.138548e-06	-8.689128e-09	-5.188466e+01	-5.701418e+02
2.400000e-07	-7.072437e-06	-8.652009e-09	-5.140415e+01	-5.687055e+02
2.500000e-07	-7.003794e-06	-8.643657e-09	-5.090523e+01	-5.671953e+02
2.600000e-07	-6.932585e-06	-8.628979e-09	-5.038767e+01	-5.656223e+02
2.700000e-07	-6.858642e-06	-8.577441e-09	-4.985024e+01	-5.639967e+02
2.800000e-07	-6.781982e-06	-8.556830e-09	-4.929306e+01	-5.623248e+02
2.900000e-07	-6.702649e-06	-8.532031e-09	-4.871644e+01	-5.606082e+02
3.000000e-07	-6.620776e-06	-8.532597e-09	-4.812137e+01	-5.588425e+02
3.100000e-07	-6.536641e-06	-8.480251e-09	-4.750986e+01	-5.570185e+02
3.200000e-07	-6.450422e-06	-8.447110e-09	-4.688320e+01	-5.551241e+02
3.300000e-07	-6.361977e-06	-8.431295e-09	-4.624036e+01	-5.531472e+02
3.400000e-07	-6.271179e-06	-8.382314e-09	-4.558042e+01	-5.510787e+02
3.500000e-07	-6.178175e-06	-8.357333e-09	-4.490444e+01	-5.489146e+02
3.600000e-07	-6.082993e-06	-8.326804e-09	-4.421264e+01	-5.466576e+02
3.700000e-07	-5.985509e-06	-8.292030e-09	-4.350410e+01	-5.443161e+02
3.800000e-07	-5.885739e-06	-8.236622e-09	-4.277895e+01	-5.419021e+02
3.900000e-07	-5.783905e-06	-8.204702e-09	-4.203879e+01	-5.394284e+02
4.000000e-07	-5.680010e-06	-8.181346e-09	-4.128366e+01	-5.369048e+02
4.100000e-07	-5.574027e-06	-8.139231e-09	-4.051335e+01	-5.343354e+02
4.200000e-07	-5.466069e-06	-8.096112e-09	-3.972868e+01	-5.317177e+02
4.300000e-07	-5.356185e-06	-8.053461e-09	-3.893002e+01	-5.290430e+02
4.400000e-07	-5.244270e-06	-8.014506e-09	-3.811660e+01	-5.262984e+02
4.500000e-07	-5.130272e-06	-7.964323e-09	-3.728804e+01	-5.234705e+02
4.600000e-07	-5.014309e-06	-7.922550e-09	-3.644519e+01	-5.205488e+02
4.700000e-07	-4.896442e-06	-7.880274e-09	-3.558850e+01	-5.175283e+02
4.800000e-07	-4.776710e-06	-7.824830e-09	-3.471826e+01	-5.144104e+02
4.900000e-07	-4.655218e-06	-7.769896e-09	-3.383523e+01	-5.112024e+02
5.000000e-07	-4.532104e-06	-7.728119e-09	-3.294041e+01	-5.079143e+02
5.100000e-07	-4.407366e-06	-7.685664e-09	-3.203378e+01	-5.045556e+02
5.200000e-07	-4.281055e-06	-7.626756e-09	-3.111572e+01	-5.011313e+02
5.300000e-07	-4.153235e-06	-7.565956e-09	-3.018670e+01	-4.976398e+02
5.400000e-07	-4.023896e-06	-7.514037e-09	-2.924663e+01	-4.940716e+02
5.500000e-07	-3.893063e-06	-7.460291e-09	-2.829570e+01	-4.904114e+02
5.600000e-07	-3.760842e-06	-7.400855e-09	-2.733469e+01	-4.866406e+02
5.700000e-07	-3.627297e-06	-7.339719e-09	-2.636405e+01	-4.827418e+02
5.800000e-07	-3.492389e-06	-7.276024e-09	-2.538351e+01	-4.787024e+02
5.900000e-07	-3.356138e-06	-7.208305e-09	-2.439321e+01	-4.745173e+02
6.000000e-07	-3.218678e-06	-7.145925e-09	-2.339411e+01	-4.701892e+02
6.100000e-07	-3.080010e-06	-7.086034e-09	-2.238624e+01	-4.657270e+02
6.200000e-07	-2.940017e-06	-7.017173e-09	-2.136874e+01	-4.611427e+02
6.300000e-07	-2.798759e-06	-6.939000e-09	-2.034204e+01	-4.564467e+02
6.400000e-07	-2.656381e-06	-6.863173e-09	-1.930721e+01	-4.516443e+02
6.500000e-07	-2.512988e-06	-6.793400e-09	-1.826499e+01	-4.467333e+02
6.600000e-07	-2.368742e-06	-6.714593e-09	-1.721658e+01	-4.417037e+02
6.700000e-07	-2.223748e-06	-6.631756e-09	-1.616273e+01	-4.365396e+02
6.800000e-07	-2.077935e-06	-6.549138e-09	-1.510293e+01	-4.312226e+02
6.900000e-07	-1.931313e-06	-6.465905e-09	-1.403724e+01	-4.257354e+02
7.000000e-07	-1.784015e-06	-6.378331e-09	-1.296665e+01	-4.200653e+02
7.100000e-07	-1.636170e-06	-6.291338e-09	-1.189207e+01	-4.142060e+02
7.200000e-07	-1.487790e-06	-6.201263e-09	-1.081361e+01	-4.081566e+02
7.300000e-07	-1.338894e-06	-6.104510e-09	-9.731401e+00	-4.019194e+02
7.400000e-07	-1.189567e-06	-6.006892e-09	-8.646057e+00	-3.954961e+02
7.500000e-07	-1.039784e-06	-5.907983e-09	-7.557395e+00	-3.888838e+02
7.600000e-07	-8.895697e-07	-5.805372e-09	-6.465603e+00	-3.820720e+02
7.700000e-07	-7.390349e-07	-5.692207e-09	-5.371481e+00	-3.750412e+02
7.800000e-07	-5.882384e-07	-5.578245e-09	-4.275456e+00	-3.677639e+02
7.900000e-07	-4.372090e-07	-5.463766e-09	-3.177738e+00	-3.602073e+02
8.000000e-07	-2.859899e-07	-5.343030e-09	-2.078642e+00	-3.523374e+02
8.100000e-07	-1.346736e-07	-5.214041e-09	-9.788397e-01	-3.441220e+02
8.200000e-07	1.672215e-08	-5.082319e-09	1.215406e-01	-3.355347e+02
8.300000e-07	1.681421e-07	-4.947031e-09	1.222097e+00	-3.265550e+02
8.400000e-07	3.194736e-07	-4.801918e-09	2.322010e+00	-3.171685e+02
8.500000e-07	4.707226e-07	-4.652120e-09	3.421323e+00	-3.073646e+02
8.600000e-07	6.217737e-07	-4.498208e-09	4.519198e+00	-2.971337e+02
8.700000e-07	7.725336e-07	-4.335914e-09	5.614957e+00	-2.864649e+02
8.800000e-07	9.230253e-07	-4.163889e-09	6.708767e+00	-2.753436e+02
8.900000e-07	1.073138e-06	-3.985573e-09	7.799820e+00	-2.637504e+02
9.000000e-07	1.222768e-06	-3.800353e-09	8.887365e+00	-2.516591e+02
9.100000e-07	1.371935e-06	-3.607054e-09	9.971551e+00	-2.390352e+02
9.200000e-07	1.520633e-06	-3.405249e-09	1.105232e+01	-2.258320e+02
9.300000e-07	1.668792e-06	-3.196220e-09	1.212918e+01	-2.119856e+02
9.400000e-07	1.816352e-06	-2.976048e-09	1.320168e+01	-1.974080e+02
9.500000e-07	1.963291e-06	-2.740635e-09	1.426966e+01	-1.819813e+02
9.600000e-07	2.109580e-06	-2.491198e-09	1.533293e+01	-1.655534e+02
9.700000e-07	2.255075e-06	-2.223978e-09	1.639042e+01	-1.479396e+02
9.800000e-07	2.399776e-06	-1.932109e-09	1.744214e+01	-1.289306e+02
9.900000e-07	2.543686e-06	-1.613398e-09	1.848812e+01	-1.083097e+02
1.000000e-06	2.686642e-06	-1.269813e-09	1.952715e+01	-8.587722e+01
1.010000e-06	2.828546e-06	-8.993915e-10	2.055854e+01	-6.148079e+01
1.020000e-06	2.969344e-06	-4.964790e-10	2.158190e+01	-3.504722e+01
1.030000e-06	3.108953e-06	-6.164288e-11	2.259661e+01	-6.610204e+00
1.040000e-06	3.247355e-06	4.027180e-10	2.360255e+01	2.367099e+01
1.050000e-06	3.384548e-06	8.884170e-10	2.459970e+01	5.550649e+01
1.060000e-06	3.520546e-06	1.392761e-09	2.558816e+01	8.848676e+01
1.070000e-06	3.655283e-06	1.906924e-09	2.656747e+01	1.221093e+02
1.080000e-06	3.788634e-06	2.421647e-09	2.753669e+01	1.558178e+02
1.090000e-06	3.920638e-06	2.928876e-09	2.849613e+01	1.890490e+02
1.100000e-06	4.051241e-06	3.418272e-09	2.944538e+01	2.212795e+02
1.110000e-06	4.180356e-06	3.882309e-09	3.038382e+01	2.520663e+02
1.120000e-06	4.308020e-06	4.317784e-09	3.131171e+01	2.810753e+02
1.130000e-06	4.434189e-06	4.727655e-09	3.222874e+01	3.080943e+02
1.140000e-06	4.558821e-06	5.108397e-09	3.313459e+01	3.330302e+02
1.150000e-06	4.681851e-06	5.457276e-09	3.402880e+01	3.558916e+02
1.160000e-06	4.803205e-06	5.773250e-09	3.491083e+01	3.767632e+02
1.170000e-06	4.922816e-06	6.061345e-09	3.578019e+01	3.957761e+02
1.180000e-06	5.040517e-06	6.322526e-09	3.663567e+01	4.130798e+02
1.190000e-06	5.156237e-06	6.561767e-09	3.747675e+01	4.288208e+02
1.200000e-06	5.270029e-06	6.777542e-09	3.830382e+01	4.431299e+02
1.210000e-06	5.381914e-06	6.967908e-09	3.911703e+01	4.561187e+02
1.220000e-06	5.491884e-06	7.141117e-09	3.991631e+01	4.678829e+02
1.230000e-06	5.599925e-06	7.303113e-09	4.070158e+01	4.785099e+02
1.240000e-06	5.705983e-06	7.452703e-09	4.147244e+01	4.880872e+02
1.250000e-06	5.809955e-06	7.584232e-09	4.222813e+01	4.967086e+02
1.260000e-06	5.911822e-06	7.700241e-09	4.296852e+01	5.044759e+02
1.270000e-06	6.011572e-06	7.806572e-09	4.369353e+01	5.114964e+02
1.280000e-06	6.109093e-06	7.905351e-09	4.440233e+01	5.178769e+02
1.290000e-06	6.204384e-06	7.995287e-09	4.509493e+01	5.237164e+02
1.300000e-06	6.297495e-06	8.075074e-09	4.577168e+01	5.290987e+02
1.310000e-06	6.388408e-06	8.148373e-09	4.643246e+01	5.340887e+02
1.320000e-06	6.477088e-06	8.217116e-09	4.707701e+01	5.387309e+02
1.330000e-06	6.563473e-06	8.281902e-09	4.770488e+01	5.430531e+02
1.340000e-06	6.647574e-06	8.342147e-09	4.831614e+01	5.470707e+02
1.350000e-06	6.729370e-06	8.396080e-09	4.891066e+01	5.507939e+02
1.360000e-06	6.808747e-06	8.444405e-09	4.948759e+01	5.542329e+02
1.370000e-06	6.885645e-06	8.490524e-09	5.004650e+01	5.574019e+02
1.380000e-06	6.959949e-06	8.535266e-09	5.058656e+01	5.603204e+02
1.390000e-06	7.031612e-06	8.576415e-09	5.110742e+01	5.630116e+02
1.400000e-06	7.100747e-06	8.613435e-09	5.160991e+01	5.654999e+02
1.410000e-06	7.167348e-06	8.646469e-09	5.209399e+01	5.678076e+02
1.420000e-06	7.231350e-06	8.677504e-09	5.255917e+01	5.699520e+02
1.430000e-06	7.292865e-06	8.707563e-09	5.300627e+01	5.719448e+02
1.440000e-06	7.351885e-06	8.734635e-09	5.343525e+01	5.737920e+02
1.450000e-06	7.408308e-06	8.757940e-09	5.384534e+01	5.754967e+02
1.460000e-06	7.462030e-06	8.778758e-09	5.423580e+01	5.770611e+02
1.470000e-06	7.512697e-06	8.799715e-09	5.460406e+01	5.784891e+02
1.480000e-06	7.560330e-06	8.819981e-09	5.495027e+01	5.797877e+02
1.490000e-06	7.605305e-06	8.837557e-09	5.527716e+01	5.809669e+02
1.500000e-06	7.647589e-06	8.853296e-09	5.558449e+01	5.820384e+02
1.510000e-06	7.687076e-06	8.868977e-09	5.587149e+01	5.830135e+02
1.520000e-06	7.723957e-06	8.884689e-09	5.613955e+01	5.839013e+02
1.530000e-06	7.758189e-06	8.897534e-09	5.638835e+01	5.847065e+02
1.540000e-06	7.789628e-06	8.907774e-09	5.661687e+01	5.854303e+02
1.550000e-06	7.818427e-06	8.917032e-09	5.682618e+01	5.860702e+02
1.560000e-06	7.844483e-06	8.924130e-09	5.701556e+01	5.866232e+02
1.570000e-06	7.867618e-06	8.930274e-09	5.718372e+01	5.870872e+02
1.580000e-06	7.888044e-06	8.936319e-09	5.733217e+01	5.874633e+02
1.590000e-06	7.905774e-06	8.941885e-09	5.746104e+01	5.877568e+02
1.600000e-06	7.920575e-06	8.945791e-09	5.756862e+01	5.879766e+02
1.610000e-06	7.932344e-06	8.948498e-09	5.765416e+01	5.881336e+02
1.620000e-06	7.941044e-06	8.951644e-09	5.771739e+01	5.882384e+02
1.630000e-06	7.946870e-06	8.952960e-09	5.775974e+01	5.882987e+02
1.640000e-06	7.949960e-06	8.954533e-09	5.778219e+01	5.883177e+02
1.650000e-06	7.950313e-06	8.957037e-09	5.778476e+01	5.882932e+02
1.660000e-06	7.948051e-06	8.953263e-09	5.776832e+01	5.882185e+02
1.670000e-06	7.943171e-06	8.950219e-09	5.773285e+01	5.880843e+02
1.680000e-06	7.935571e-06	8.947207e-09	5.767762e+01	5.878808e+02
1.690000e-06	7.925295e-06	8.942915e-09	5.760292e+01	5.876013e+02
1.700000e-06	7.912290e-06	8.938921e-09	5.750840e+01	5.872430e+02
1.710000e-06	7.896567e-06	8.940324e-09	5.739412e+01	5.868088e+02
1.720000e-06	7.878441e-06	8.950863e-09	5.726238e+01	5.863066e+02
1.730000e-06	7.857933e-06	8.931205e-09	5.711332e+01	5.857479e+02
1.740000e-06	7.834255e-06	8.851371e-09	5.694123e+01	5.851462e+02
1.750000e-06	7.806861e-06	8.871932e-09	5.674212e+01	5.845137e+02
1.760000e-06	7.776130e-06	8.891827e-09	5.651876e+01	5.838606e+02
1.770000e-06	7.742855e-06	8.878864e-09	5.627691e+01	5.831927e+02
1.780000e-06	7.707432e-06	8.888873e-09	5.601944e+01	5.825114e+02
1.790000e-06	7.669735e-06	8.902174e-09	5.574545e+01	5.818133e+02
1.800000e-06	7.629843e-06	8.824066e-09	5.545551e+01	5.810915e+02
1.810000e-06	7.587510e-06	8.838408e-09	5.514783e+01	5.803360e+02
1.820000e-06	7.542555e-06	8.880489e-09	5.482108e+01	5.795349e+02
1.830000e-06	7.494898e-06	8.772506e-09	5.447470e+01	5.786756e+02
1.840000e-06	7.444346e-06	8.832450e-09	5.410727e+01	5.777459e+02
1.850000e-06	7.390994e-06	8.754602e-09	5.371950e+01	5.767350e+02
1.860000e-06	7.334720e-06	8.764939e-09	5.331049e+01	5.756349e+02
1.870000e-06	7.275869e-06	8.789352e-09	5.288274e+01	5.744411e+02
1.880000e-06	7.214530e-06	8.691292e-09	5.243692e+01	5.731534e+02
1.890000e-06	7.150251e-06	8.747412e-09	5.196972e+01	5.717760e+02
1.900000e-06	7.083254e-06	8.648189e-09	5.148277e+01	5.703172e+02
1.910000e-06	7.013663e-06	8.671326e-09	5.097696e+01	5.687877e+02
1.920000e-06	6.941451e-06	8.659700e-09	5.045211e+01	5.671986e+02
1.930000e-06	6.866590e-06	8.606310e-09	4.990800e+01	5.655590e+02
1.940000e-06	6.788968e-06	8.606091e-09	4.934383e+01	5.638742e+02
1.950000e-06	6.708768e-06	8.518308e-09	4.876092e+01	5.621440e+02
1.960000e-06	6.626240e-06	8.576500e-09	4.816109e+01	5.603625e+02
1.970000e-06	6.541402e-06	8.486717e-09	4.754446e+01	5.585194e+02
1.980000e-06	6.454112e-06	8.470937e-09	4.691002e+01	5.566024e+02
1.990000e-06	6.364589e-06	8.448905e-09	4.625934e+01	5.545998e+02
2.000000e-06	6.272871e-06	8.410638e-09	4.559272e+01	5.525038e+02
2.010000e-06	6.178856e-06	8.400265e-09	4.490939e+01	5.503124e+02
2.020000e-06	6.082648e-06	8.328829e-09	4.421013e+01	5.480299e+02
2.030000e-06	5.984339e-06	8.325552e-09	4.349560e+01	5.456661e+02
2.040000e-06	5.883909e-06	8.250821e-09	4.276565e+01	5.432336e+02
2.050000e-06	5.781299e-06	8.245828e-09	4.201985e+01	5.407446e+02
2.060000e-06	5.676606e-06	8.196586e-09	4.125892e+01	5.382075e+02
2.070000e-06	5.569888e-06	8.159537e-09	4.048326e+01	5.356246e+02
2.080000e-06	5.461196e-06	8.101297e-09	3.969327e+01	5.329915e+02
2.090000e-06	5.350527e-06	8.066518e-09	3.888890e+01	5.302979e+02
2.100000e-06	5.237895e-06	8.049836e-09	3.807026e+01	5.275306e+02
2.110000e-06	5.123263e-06	7.993462e-09	3.723709e+01	5.246766e+02
2.120000e-06	5.006606e-06	7.942675e-09	3.638920e+01	5.217266e+02
2.130000e-06	4.888002e-06	7.886492e-09	3.552716e+01	5.186776e+02
2.140000e-06	4.767490e-06	7.860373e-09	3.465125e+01	5.155328e+02
2.150000e-06	4.645278e-06	7.806893e-09	3.376298e+01	5.123006e+02
2.160000e-06	4.521409e-06	7.760399e-09	3.286268e+01	5.089912e+02
2.170000e-06	4.395880e-06	7.697796e-09	3.195030e+01	5.056133e+02
2.180000e-06	4.268820e-06	7.647025e-09	3.102680e+01	5.021700e+02
2.190000e-06	4.140225e-06	7.594821e-09	3.009214e+01	4.986576e+02
2.200000e-06	4.010211e-06	7.553951e-09	2.914716e+01	4.950647e+02
2.210000e-06	3.878783e-06	7.494456e-09	2.819191e+01	4.913745e+02
2.220000e-06	3.745870e-06	7.425831e-09	2.722587e+01	4.875685e+02
2.230000e-06	3.611674e-06	7.365824e-09	2.625050e+01	4.836303e+02
2.240000e-06	3.476277e-06	7.315077e-09	2.526641e+01	4.795492e+02
2.250000e-06	3.339552e-06	7.255980e-09	2.427266e+01	4.753224e+02
2.260000e-06	3.201525e-06	7.177721e-09	2.326944e+01	4.709546e+02
2.270000e-06	3.062269e-06	7.103098e-09	2.225729e+01	4.664561e+02
2.280000e-06	2.921887e-06	7.035161e-09	2.123697e+01	4.618387e+02
2.290000e-06	2.780443e-06	6.973365e-09	2.020892e+01	4.571118e+02
2.300000e-06	2.638017e-06	6.901133e-09	1.917374e+01	4.522787e+02
2.310000e-06	2.494600e-06	6.825717e-09	1.813135e+01	4.473349e+02
2.320000e-06	2.350178e-06	6.743337e-09	1.708165e+01	4.422684e+02
2.330000e-06	2.204899e-06	6.664997e-09	1.602573e+01	4.370623e+02
2.340000e-06	2.058975e-06	6.589444e-09	1.496512e+01	4.316980e+02
2.350000e-06	1.912345e-06	6.510269e-09	1.389938e+01	4.261593e+02
2.360000e-06	1.764915e-06	6.418557e-09	1.282782e+01	4.204353e+02
2.370000e-06	1.616848e-06	6.322282e-09	1.175163e+01	4.145213e+02
2.380000e-06	1.468313e-06	6.232058e-09	1.067205e+01	4.084177e+02
2.390000e-06	1.319334e-06	6.142263e-09	9.589234e+00	4.021270e+02
2.400000e-06	1.169822e-06	6.042056e-09	8.502543e+00	3.956501e+02
2.410000e-06	1.019882e-06	5.935429e-09	7.412747e+00	3.889820e+02
2.420000e-06	8.696509e-07	5.830083e-09	6.320829e+00	3.821097e+02
2.430000e-06	7.191618e-07	5.722756e-09	5.227039e+00	3.750113e+02
2.440000e-06	5.684240e-07	5.611791e-09	4.131440e+00	3.676575e+02
2.450000e-06	4.174658e-07	5.496948e-09	3.034240e+00	3.600146e+02
2.460000e-06	2.663434e-07	5.377519e-09	1.935847e+00	3.520488e+02
2.470000e-06	1.151511e-07	5.251614e-09	8.369453e-01	3.437293e+02
2.480000e-06	-3.603932e-08	5.119678e-09	-2.619423e-01	3.350314e+02
2.490000e-06	-1.872197e-07	4.983719e-09	-1.360757e+00	3.259366e+02
2.500000e-06	-3.383539e-07	4.841048e-09	-2.459236e+00	3.164315e+02
2.510000e-06	-4.893212e-07	4.689271e-09	-3.556503e+00	3.065064e+02
2.520000e-06	-6.400959e-07	4.530682e-09	-4.652369e+00	2.961513e+02
2.530000e-06	-7.906332e-07	4.364881e-09	-5.746510e+00	2.853547e+02
2.540000e-06	-9.408094e-07	4.191999e-09	-6.838026e+00	2.741005e+02
2.550000e-06	-1.090552e-06	4.013022e-09	-7.926390e+00	2.623677e+02
2.560000e-06	-1.239875e-06	3.828292e-09	-9.011708e+00	2.501280e+02
2.570000e-06	-1.388829e-06	3.635242e-09	-1.009434e+01	2.373437e+02
2.580000e-06	-1.537426e-06	3.431380e-09	-1.117438e+01	2.239640e+02
2.590000e-06	-1.685583e-06	3.216661e-09	-1.225122e+01	2.099186e+02
2.600000e-06	-1.833139e-06	2.990778e-09	-1.332369e+01	1.951116e+02
2.610000e-06	-1.979951e-06	2.750791e-09	-1.439075e+01	1.794156e+02
2.620000e-06	-2.125969e-06	2.494247e-09	-1.545205e+01	1.626688e+02
2.630000e-06	-2.271185e-06	2.219020e-09	-1.650751e+01	1.446782e+02
2.640000e-06	-2.415533e-06	1.922033e-09	-1.755667e+01	1.252303e+02
2.650000e-06	-2.558992e-06	1.600007e-09	-1.859936e+01	1.041105e+02
2.660000e-06	-2.701518e-06	1.250113e-09	-1.963528e+01	8.112925e+01
2.670000e-06	-2.843003e-06	8.715363e-10	-2.066362e+01	5.615379e+01
2.680000e-06	-2.983470e-06	4.616674e-10	-2.168457e+01	2.913887e+01
2.690000e-06	-3.122815e-06	2.226567e-11	-2.269736e+01	1.526926e-01
2.700000e-06	-3.260890e-06	-4.442351e-10	-2.370092e+01	-3.060800e+01
2.710000e-06	-3.397732e-06	-9.333921e-10	-2.469552e+01	-6.281731e+01
2.720000e-06	-3.533321e-06	-1.441345e-09	-2.568102e+01	-9.603577e+01
2.730000e-06	-3.667543e-06	-1.960108e-09	-2.665657e+01	-1.297411e+02
2.740000e-06	-3.800495e-06	-2.475892e-09	-2.762290e+01	-1.633701e+02
2.750000e-06	-3.932142e-06	-2.979190e-09	-2.857974e+01	-1.963662e+02
2.760000e-06	-4.062331e-06	-3.465189e-09	-2.952598e+01	-2.282253e+02
2.770000e-06	-4.191142e-06	-3.930263e-09	-3.046221e+01	-2.585332e+02
2.780000e-06	-4.318476e-06	-4.366277e-09	-3.138771e+01	-2.869902e+02
2.790000e-06	-4.444249e-06	-4.770806e-09	-3.230186e+01	-3.134190e+02
2.800000e-06	-4.568509e-06	-5.144001e-09	-3.320501e+01	-3.377576e+02
2.810000e-06	-4.691160e-06	-5.484299e-09	-3.409646e+01	-3.600395e+02
2.820000e-06	-4.812119e-06	-5.795758e-09	-3.497562e+01	-3.803657e+02
2.830000e-06	-4.931228e-06	-6.082385e-09	-3.584134e+01	-3.988750e+02
2.840000e-06	-5.048354e-06	-6.342615e-09	-3.669263e+01	-4.157180e+02
2.850000e-06	-5.163447e-06	-6.577769e-09	-3.752916e+01	-4.310376e+02
2.860000e-06	-5.276407e-06	-6.792848e-09	-3.835018e+01	-4.449592e+02
2.870000e-06	-5.387359e-06	-6.989225e-09	-3.915660e+01	-4.575892e+02
2.880000e-06	-5.496375e-06	-7.165294e-09	-3.994896e+01	-4.690199e+02
2.890000e-06	-5.603478e-06	-7.322482e-09	-4.072741e+01	-4.793381e+02
2.900000e-06	-5.708680e-06	-7.464310e-09	-4.149204e+01	-4.886326e+02
2.910000e-06	-5.811815e-06	-7.593228e-09	-4.224165e+01	-4.969995e+02
2.920000e-06	-5.912840e-06	-7.710184e-09	-4.297592e+01	-5.045426e+02
2.930000e-06	-6.011786e-06	-7.815009e-09	-4.369508e+01	-5.113699e+02
2.940000e-06	-6.108646e-06	-7.909982e-09	-4.439909e+01	-5.175865e+02
