# Temperatura_=_20.0
# Concentracion g/m^3_=_9900.0
# C_Vs_to_Am_M_A/Vsm_=_65563218390.804596
# pendiente_HvsI_1/m_=_3716.3
# ordenada_HvsI_A/m_=_1297.0
# frecuencia_Hz_=_301718.38374217204

Tiempo_(s)	Campo_(V.s)	Magnetizacion_(V.s)	Campo_(kA/m)	Magnetizacion_(A/m)
0.000000e+00	-7.980236e-06	-1.164973e-08	-5.756172e+01	-7.633791e+02
1.000000e-08	-7.978427e-06	-1.165037e-08	-5.754868e+01	-7.632371e+02
2.000000e-08	-7.973948e-06	-1.165049e-08	-5.751637e+01	-7.630180e+02
3.000000e-08	-7.966943e-06	-1.164601e-08	-5.746584e+01	-7.627205e+02
4.000000e-08	-7.957144e-06	-1.163960e-08	-5.739516e+01	-7.623444e+02
5.000000e-08	-7.944458e-06	-1.163194e-08	-5.730366e+01	-7.618910e+02
6.000000e-08	-7.928908e-06	-1.162428e-08	-5.719150e+01	-7.613637e+02
7.000000e-08	-7.910659e-06	-1.161378e-08	-5.705987e+01	-7.607674e+02
8.000000e-08	-7.890003e-06	-1.159545e-08	-5.691087e+01	-7.601084e+02
9.000000e-08	-7.866676e-06	-1.161068e-08	-5.674262e+01	-7.593940e+02
1.000000e-07	-7.840184e-06	-1.162407e-08	-5.655152e+01	-7.586319e+02
1.100000e-07	-7.810574e-06	-1.158871e-08	-5.633795e+01	-7.578297e+02
1.200000e-07	-7.778129e-06	-1.156117e-08	-5.610392e+01	-7.569944e+02
1.300000e-07	-7.742935e-06	-1.155552e-08	-5.585007e+01	-7.561317e+02
1.400000e-07	-7.705389e-06	-1.153766e-08	-5.557924e+01	-7.552457e+02
1.500000e-07	-7.665772e-06	-1.148653e-08	-5.529349e+01	-7.543379e+02
1.600000e-07	-7.623574e-06	-1.152210e-08	-5.498911e+01	-7.534065e+02
1.700000e-07	-7.578524e-06	-1.150451e-08	-5.466416e+01	-7.524459e+02
1.800000e-07	-7.530829e-06	-1.142104e-08	-5.432013e+01	-7.514467e+02
1.900000e-07	-7.480156e-06	-1.147578e-08	-5.395463e+01	-7.503961e+02
2.000000e-07	-7.426466e-06	-1.142984e-08	-5.356736e+01	-7.492796e+02
2.100000e-07	-7.370067e-06	-1.139067e-08	-5.316055e+01	-7.480824e+02
2.200000e-07	-7.310979e-06	-1.138766e-08	-5.273435e+01	-7.467915e+02
2.300000e-07	-7.249269e-06	-1.134956e-08	-5.228923e+01	-7.453981e+02
2.400000e-07	-7.184919e-06	-1.135554e-08	-5.182508e+01	-7.438984e+02
2.500000e-07	-7.117906e-06	-1.130858e-08	-5.134171e+01	-7.422937e+02
2.600000e-07	-7.048290e-06	-1.129372e-08	-5.083956e+01	-7.405901e+02
2.700000e-07	-6.976016e-06	-1.125780e-08	-5.031825e+01	-7.387961e+02
2.800000e-07	-6.900987e-06	-1.123028e-08	-4.977707e+01	-7.369202e+02
2.900000e-07	-6.823308e-06	-1.120564e-08	-4.921676e+01	-7.349685e+02
3.000000e-07	-6.743028e-06	-1.116927e-08	-4.863770e+01	-7.329433e+02
3.100000e-07	-6.660219e-06	-1.115031e-08	-4.804040e+01	-7.308423e+02
3.200000e-07	-6.575202e-06	-1.108793e-08	-4.742716e+01	-7.286596e+02
3.300000e-07	-6.487995e-06	-1.107225e-08	-4.679814e+01	-7.263873e+02
3.400000e-07	-6.398464e-06	-1.104551e-08	-4.615235e+01	-7.240184e+02
3.500000e-07	-6.306631e-06	-1.099750e-08	-4.548996e+01	-7.215490e+02
3.600000e-07	-6.212553e-06	-1.095425e-08	-4.481137e+01	-7.189800e+02
3.700000e-07	-6.116268e-06	-1.091670e-08	-4.411686e+01	-7.163170e+02
3.800000e-07	-6.017687e-06	-1.088043e-08	-4.340579e+01	-7.135693e+02
3.900000e-07	-5.916863e-06	-1.082956e-08	-4.267855e+01	-7.107472e+02
4.000000e-07	-5.813950e-06	-1.079241e-08	-4.193623e+01	-7.078595e+02
4.100000e-07	-5.709007e-06	-1.074119e-08	-4.117927e+01	-7.049102e+02
4.200000e-07	-5.601977e-06	-1.069306e-08	-4.040726e+01	-7.018976e+02
4.300000e-07	-5.492891e-06	-1.064644e-08	-3.962042e+01	-6.988135e+02
4.400000e-07	-5.381798e-06	-1.061077e-08	-3.881910e+01	-6.956454e+02
4.500000e-07	-5.268648e-06	-1.056342e-08	-3.800294e+01	-6.923791e+02
4.600000e-07	-5.153456e-06	-1.050143e-08	-3.717206e+01	-6.890018e+02
4.700000e-07	-5.036230e-06	-1.044304e-08	-3.632650e+01	-6.855047e+02
4.800000e-07	-4.917099e-06	-1.039457e-08	-3.546721e+01	-6.818854e+02
4.900000e-07	-4.796233e-06	-1.034375e-08	-3.459540e+01	-6.781465e+02
5.000000e-07	-4.673681e-06	-1.027971e-08	-3.371143e+01	-6.742949e+02
5.100000e-07	-4.549437e-06	-1.021731e-08	-3.281525e+01	-6.703382e+02
5.200000e-07	-4.423525e-06	-1.015201e-08	-3.190704e+01	-6.662817e+02
5.300000e-07	-4.296016e-06	-1.008963e-08	-3.098732e+01	-6.621258e+02
5.400000e-07	-4.166965e-06	-1.002900e-08	-3.005647e+01	-6.578645e+02
5.500000e-07	-4.036428e-06	-9.966480e-09	-2.911490e+01	-6.534866e+02
5.600000e-07	-3.904446e-06	-9.891063e-09	-2.816291e+01	-6.489775e+02
5.700000e-07	-3.770988e-06	-9.813819e-09	-2.720027e+01	-6.443225e+02
5.800000e-07	-3.636121e-06	-9.743388e-09	-2.622747e+01	-6.395099e+02
5.900000e-07	-3.499921e-06	-9.673976e-09	-2.524505e+01	-6.345335e+02
6.000000e-07	-3.362465e-06	-9.595308e-09	-2.425358e+01	-6.293931e+02
6.100000e-07	-3.223742e-06	-9.509936e-09	-2.325296e+01	-6.240933e+02
6.200000e-07	-3.083641e-06	-9.428022e-09	-2.224241e+01	-6.186406e+02
6.300000e-07	-2.942292e-06	-9.344181e-09	-2.122286e+01	-6.130404e+02
6.400000e-07	-2.799806e-06	-9.259562e-09	-2.019510e+01	-6.072934e+02
6.500000e-07	-2.656298e-06	-9.171897e-09	-1.915997e+01	-6.013941e+02
6.600000e-07	-2.511885e-06	-9.078331e-09	-1.811832e+01	-5.953305e+02
6.700000e-07	-2.366465e-06	-8.975480e-09	-1.706940e+01	-5.890863e+02
6.800000e-07	-2.220130e-06	-8.874752e-09	-1.601388e+01	-5.826443e+02
6.900000e-07	-2.073061e-06	-8.777232e-09	-1.495306e+01	-5.759895e+02
7.000000e-07	-1.925320e-06	-8.673035e-09	-1.388740e+01	-5.691124e+02
7.100000e-07	-1.776972e-06	-8.561117e-09	-1.281736e+01	-5.620095e+02
7.200000e-07	-1.628010e-06	-8.446233e-09	-1.174290e+01	-5.546829e+02
7.300000e-07	-1.478468e-06	-8.334997e-09	-1.066424e+01	-5.471366e+02
7.400000e-07	-1.328337e-06	-8.220308e-09	-9.581346e+00	-5.393723e+02
7.500000e-07	-1.177668e-06	-8.099005e-09	-8.494559e+00	-5.313852e+02
7.600000e-07	-1.026632e-06	-7.969257e-09	-7.405136e+00	-5.231611e+02
7.700000e-07	-8.753078e-07	-7.834816e-09	-6.313626e+00	-5.146752e+02
7.800000e-07	-7.237059e-07	-7.699330e-09	-5.220117e+00	-5.058944e+02
7.900000e-07	-5.718962e-07	-7.562617e-09	-4.125107e+00	-4.967808e+02
8.000000e-07	-4.199112e-07	-7.419956e-09	-3.028834e+00	-4.872970e+02
8.100000e-07	-2.677341e-07	-7.265988e-09	-1.931175e+00	-4.774107e+02
8.200000e-07	-1.153980e-07	-7.105753e-09	-8.323700e-01	-4.670981e+02
8.300000e-07	3.700759e-08	-6.942785e-09	2.669370e-01	-4.563446e+02
8.400000e-07	1.893637e-07	-6.776650e-09	1.365887e+00	-4.451424e+02
8.500000e-07	3.416430e-07	-6.601664e-09	2.464283e+00	-4.334868e+02
8.600000e-07	4.938201e-07	-6.415657e-09	3.561942e+00	-4.213711e+02
8.700000e-07	6.457669e-07	-6.221328e-09	4.657939e+00	-4.087816e+02
8.800000e-07	7.974451e-07	-6.021109e-09	5.752000e+00	-3.956948e+02
8.900000e-07	9.488816e-07	-5.814805e-09	6.844317e+00	-3.820762e+02
9.000000e-07	1.100043e-06	-5.598801e-09	7.934648e+00	-3.678811e+02
9.100000e-07	1.250874e-06	-5.371298e-09	9.022597e+00	-3.530556e+02
9.200000e-07	1.401248e-06	-5.131577e-09	1.010725e+01	-3.375374e+02
9.300000e-07	1.551038e-06	-4.883154e-09	1.118769e+01	-3.212533e+02
9.400000e-07	1.700177e-06	-4.626481e-09	1.226344e+01	-3.041146e+02
9.500000e-07	1.848700e-06	-4.353335e-09	1.333474e+01	-2.860089e+02
9.600000e-07	1.996614e-06	-4.057032e-09	1.440165e+01	-2.667914e+02
9.700000e-07	2.143890e-06	-3.739091e-09	1.546396e+01	-2.462780e+02
9.800000e-07	2.290457e-06	-3.402535e-09	1.652115e+01	-2.242436e+02
9.900000e-07	2.436141e-06	-3.041683e-09	1.757197e+01	-2.004288e+02
1.000000e-06	2.580918e-06	-2.647928e-09	1.861626e+01	-1.745572e+02
1.010000e-06	2.724844e-06	-2.216220e-09	1.965439e+01	-1.463623e+02
1.020000e-06	2.867792e-06	-1.744204e-09	2.068549e+01	-1.156232e+02
1.030000e-06	3.009634e-06	-1.232783e-09	2.170859e+01	-8.220345e+01
1.040000e-06	3.150316e-06	-6.829934e-10	2.272334e+01	-4.608736e+01
1.050000e-06	3.289758e-06	-9.410370e-11	2.372914e+01	-7.407596e+00
1.060000e-06	3.427930e-06	5.320911e-10	2.472578e+01	3.354177e+01
1.070000e-06	3.564799e-06	1.186481e-09	2.571302e+01	7.631025e+01
1.080000e-06	3.700337e-06	1.857747e-09	2.669066e+01	1.203147e+02
1.090000e-06	3.834542e-06	2.535322e-09	2.765869e+01	1.648798e+02
1.100000e-06	3.967392e-06	3.210012e-09	2.861694e+01	2.092891e+02
1.110000e-06	4.098799e-06	3.873820e-09	2.956478e+01	2.528414e+02
1.120000e-06	4.228686e-06	4.515407e-09	3.050166e+01	2.949028e+02
1.130000e-06	4.357083e-06	5.123024e-09	3.142779e+01	3.349488e+02
1.140000e-06	4.483970e-06	5.692919e-09	3.234304e+01	3.725913e+02
1.150000e-06	4.609302e-06	6.222929e-09	3.324706e+01	4.075886e+02
1.160000e-06	4.733046e-06	6.713072e-09	3.413963e+01	4.398378e+02
1.170000e-06	4.855053e-06	7.162916e-09	3.501967e+01	4.693552e+02
1.180000e-06	4.975314e-06	7.570636e-09	3.588711e+01	4.962476e+02
1.190000e-06	5.093824e-06	7.937492e-09	3.674194e+01	5.206808e+02
1.200000e-06	5.210356e-06	8.271817e-09	3.758248e+01	5.428506e+02
1.210000e-06	5.324842e-06	8.580476e-09	3.840827e+01	5.629593e+02
1.220000e-06	5.437319e-06	8.859736e-09	3.921958e+01	5.812004e+02
1.230000e-06	5.547798e-06	9.107801e-09	4.001646e+01	5.977506e+02
1.240000e-06	5.656360e-06	9.330528e-09	4.079953e+01	6.127678e+02
1.250000e-06	5.762939e-06	9.536387e-09	4.156828e+01	6.263938e+02
1.260000e-06	5.867421e-06	9.725514e-09	4.232192e+01	6.387578e+02
1.270000e-06	5.969796e-06	9.896423e-09	4.306035e+01	6.499797e+02
1.280000e-06	6.070013e-06	1.005051e-08	4.378322e+01	6.601721e+02
1.290000e-06	6.167981e-06	1.019009e-08	4.448986e+01	6.694403e+02
1.300000e-06	6.263630e-06	1.031943e-08	4.517978e+01	6.778813e+02
1.310000e-06	6.357060e-06	1.044035e-08	4.585370e+01	6.855822e+02
1.320000e-06	6.448367e-06	1.055083e-08	4.651230e+01	6.926197e+02
1.330000e-06	6.537390e-06	1.064868e-08	4.715442e+01	6.990604e+02
1.340000e-06	6.624082e-06	1.073646e-08	4.777974e+01	7.049622e+02
1.350000e-06	6.708528e-06	1.081869e-08	4.838885e+01	7.103763e+02
1.360000e-06	6.790636e-06	1.089473e-08	4.898110e+01	7.153500e+02
1.370000e-06	6.870296e-06	1.096396e-08	4.955569e+01	7.199280e+02
1.380000e-06	6.947429e-06	1.102731e-08	5.011205e+01	7.241530e+02
1.390000e-06	7.021896e-06	1.108526e-08	5.064919e+01	7.280653e+02
1.400000e-06	7.093736e-06	1.114079e-08	5.116737e+01	7.317006e+02
1.410000e-06	7.163111e-06	1.119514e-08	5.166777e+01	7.350887e+02
1.420000e-06	7.229971e-06	1.124529e-08	5.215004e+01	7.382519e+02
1.430000e-06	7.294191e-06	1.129013e-08	5.261326e+01	7.412044e+02
1.440000e-06	7.355873e-06	1.132879e-08	5.305818e+01	7.439536e+02
1.450000e-06	7.415047e-06	1.136529e-08	5.348500e+01	7.465014e+02
1.460000e-06	7.471540e-06	1.140351e-08	5.389248e+01	7.488480e+02
1.470000e-06	7.525293e-06	1.143896e-08	5.428021e+01	7.509939e+02
1.480000e-06	7.576049e-06	1.146945e-08	5.464631e+01	7.529428e+02
1.490000e-06	7.623786e-06	1.149557e-08	5.499064e+01	7.547024e+02
1.500000e-06	7.668810e-06	1.152040e-08	5.531540e+01	7.562843e+02
1.510000e-06	7.711088e-06	1.154428e-08	5.562035e+01	7.577033e+02
1.520000e-06	7.750555e-06	1.156536e-08	5.590503e+01	7.589747e+02
1.530000e-06	7.787387e-06	1.158233e-08	5.617070e+01	7.601133e+02
1.540000e-06	7.821538e-06	1.159533e-08	5.641703e+01	7.611309e+02
1.550000e-06	7.852901e-06	1.160845e-08	5.664326e+01	7.620364e+02
1.560000e-06	7.881536e-06	1.162044e-08	5.684980e+01	7.628353e+02
1.570000e-06	7.907342e-06	1.163056e-08	5.703594e+01	7.635311e+02
1.580000e-06	7.930324e-06	1.164042e-08	5.720171e+01	7.641262e+02
1.590000e-06	7.950612e-06	1.164905e-08	5.734805e+01	7.646229e+02
1.600000e-06	7.968087e-06	1.165544e-08	5.747409e+01	7.650246e+02
1.610000e-06	7.982629e-06	1.166129e-08	5.757899e+01	7.653356e+02
1.620000e-06	7.994183e-06	1.166633e-08	5.766233e+01	7.655605e+02
1.630000e-06	8.002647e-06	1.166857e-08	5.772338e+01	7.657041e+02
1.640000e-06	8.008268e-06	1.166797e-08	5.776392e+01	7.657699e+02
1.650000e-06	8.011135e-06	1.166718e-08	5.778460e+01	7.657600e+02
1.660000e-06	8.011157e-06	1.166742e-08	5.778476e+01	7.656748e+02
1.670000e-06	8.008537e-06	1.166275e-08	5.776586e+01	7.655134e+02
1.680000e-06	8.003232e-06	1.165921e-08	5.772760e+01	7.652745e+02
1.690000e-06	7.995254e-06	1.165488e-08	5.767005e+01	7.649570e+02
1.700000e-06	7.984661e-06	1.164849e-08	5.759364e+01	7.645612e+02
1.710000e-06	7.971234e-06	1.164208e-08	5.749680e+01	7.640887e+02
1.720000e-06	7.955128e-06	1.164049e-08	5.738062e+01	7.635433e+02
1.730000e-06	7.936670e-06	1.164416e-08	5.724749e+01	7.629304e+02
1.740000e-06	7.915587e-06	1.160399e-08	5.709541e+01	7.622566e+02
1.750000e-06	7.891110e-06	1.155210e-08	5.691885e+01	7.615294e+02
1.760000e-06	7.862894e-06	1.156900e-08	5.671534e+01	7.607563e+02
1.770000e-06	7.831492e-06	1.157254e-08	5.648883e+01	7.599450e+02
1.780000e-06	7.797701e-06	1.154514e-08	5.624509e+01	7.591020e+02
1.790000e-06	7.761772e-06	1.156541e-08	5.598594e+01	7.582330e+02
1.800000e-06	7.723631e-06	1.156904e-08	5.571082e+01	7.573413e+02
1.810000e-06	7.683143e-06	1.147282e-08	5.541878e+01	7.564276e+02
1.820000e-06	7.640063e-06	1.152803e-08	5.510804e+01	7.554893e+02
1.830000e-06	7.594402e-06	1.151215e-08	5.477869e+01	7.545198e+02
1.840000e-06	7.545986e-06	1.146315e-08	5.442947e+01	7.535088e+02
1.850000e-06	7.494656e-06	1.151513e-08	5.405922e+01	7.524429e+02
1.860000e-06	7.440387e-06	1.142597e-08	5.366778e+01	7.513073e+02
1.870000e-06	7.383220e-06	1.147041e-08	5.325543e+01	7.500875e+02
1.880000e-06	7.323613e-06	1.143102e-08	5.282548e+01	7.487714e+02
1.890000e-06	7.261308e-06	1.138835e-08	5.237607e+01	7.473513e+02
1.900000e-06	7.196071e-06	1.140235e-08	5.190552e+01	7.458247e+02
1.910000e-06	7.128208e-06	1.131885e-08	5.141602e+01	7.441944e+02
1.920000e-06	7.057658e-06	1.135864e-08	5.090713e+01	7.424671e+02
1.930000e-06	6.984442e-06	1.130674e-08	5.037903e+01	7.406516e+02
1.940000e-06	6.908495e-06	1.128069e-08	4.983122e+01	7.387560e+02
1.950000e-06	6.829867e-06	1.123333e-08	4.926408e+01	7.367857e+02
1.960000e-06	6.748741e-06	1.118953e-08	4.867891e+01	7.347417e+02
1.970000e-06	6.665247e-06	1.121916e-08	4.807666e+01	7.326207e+02
1.980000e-06	6.579387e-06	1.113286e-08	4.745735e+01	7.304160e+02
1.990000e-06	6.491111e-06	1.112166e-08	4.682062e+01	7.281199e+02
2.000000e-06	6.400578e-06	1.106253e-08	4.616759e+01	7.257258e+02
2.010000e-06	6.307845e-06	1.103977e-08	4.549871e+01	7.232311e+02
2.020000e-06	6.212835e-06	1.100553e-08	4.481340e+01	7.206376e+02
2.030000e-06	6.115599e-06	1.096068e-08	4.411203e+01	7.179522e+02
2.040000e-06	6.016245e-06	1.092190e-08	4.339539e+01	7.151846e+02
2.050000e-06	5.914627e-06	1.084964e-08	4.266242e+01	7.123452e+02
2.060000e-06	5.810812e-06	1.083094e-08	4.191360e+01	7.094417e+02
2.070000e-06	5.705025e-06	1.078658e-08	4.115055e+01	7.064768e+02
2.080000e-06	5.597289e-06	1.075103e-08	4.037345e+01	7.034469e+02
2.090000e-06	5.487611e-06	1.067494e-08	3.958233e+01	7.003429e+02
2.100000e-06	5.375922e-06	1.063098e-08	3.877672e+01	6.971514e+02
2.110000e-06	5.262087e-06	1.059287e-08	3.795562e+01	6.938581e+02
2.120000e-06	5.146184e-06	1.054535e-08	3.711961e+01	6.904512e+02
2.130000e-06	5.028369e-06	1.048359e-08	3.626981e+01	6.869233e+02
2.140000e-06	4.908628e-06	1.041739e-08	3.540611e+01	6.832734e+02
2.150000e-06	4.787008e-06	1.036258e-08	3.452886e+01	6.795053e+02
2.160000e-06	4.663643e-06	1.030379e-08	3.363902e+01	6.756265e+02
2.170000e-06	4.538682e-06	1.025670e-08	3.273768e+01	6.716443e+02
2.180000e-06	4.412134e-06	1.019469e-08	3.182488e+01	6.675629e+02
2.190000e-06	4.283922e-06	1.012447e-08	3.090008e+01	6.633811e+02
2.200000e-06	4.154129e-06	1.004844e-08	2.996388e+01	6.590917e+02
2.210000e-06	4.022871e-06	9.993925e-09	2.901711e+01	6.546822e+02
2.220000e-06	3.890230e-06	9.932038e-09	2.806037e+01	6.501377e+02
2.230000e-06	3.756286e-06	9.855982e-09	2.709422e+01	6.454439e+02
2.240000e-06	3.621032e-06	9.771469e-09	2.611863e+01	6.405904e+02
2.250000e-06	3.484398e-06	9.695427e-09	2.513308e+01	6.355726e+02
2.260000e-06	3.346441e-06	9.621744e-09	2.413799e+01	6.303915e+02
2.270000e-06	3.207214e-06	9.541371e-09	2.313375e+01	6.250526e+02
2.280000e-06	3.066797e-06	9.455764e-09	2.212092e+01	6.195624e+02
2.290000e-06	2.925239e-06	9.365967e-09	2.109986e+01	6.139254e+02
2.300000e-06	2.782553e-06	9.275574e-09	2.007065e+01	6.081409e+02
2.310000e-06	2.638803e-06	9.189292e-09	1.903378e+01	6.022015e+02
2.320000e-06	2.494108e-06	9.107260e-09	1.799009e+01	5.960942e+02
2.330000e-06	2.348454e-06	9.009835e-09	1.693949e+01	5.898019e+02
2.340000e-06	2.201910e-06	8.901029e-09	1.588246e+01	5.833077e+02
2.350000e-06	2.054735e-06	8.794454e-09	1.482088e+01	5.765977e+02
2.360000e-06	1.906953e-06	8.694693e-09	1.375492e+01	5.696639e+02
2.370000e-06	1.758441e-06	8.591018e-09	1.268370e+01	5.625045e+02
2.380000e-06	1.609303e-06	8.478867e-09	1.160796e+01	5.551224e+02
2.390000e-06	1.459687e-06	8.362215e-09	1.052877e+01	5.475213e+02
2.400000e-06	1.309589e-06	8.240472e-09	9.446110e+00	5.397019e+02
2.410000e-06	1.158960e-06	8.117818e-09	8.359623e+00	5.316570e+02
2.420000e-06	1.007865e-06	7.998672e-09	7.269768e+00	5.233699e+02
2.430000e-06	8.564676e-07	7.872523e-09	6.177731e+00	5.148134e+02
2.440000e-06	7.047989e-07	7.731349e-09	5.083740e+00	5.059528e+02
2.450000e-06	5.529162e-07	7.583491e-09	3.988204e+00	4.967498e+02
2.460000e-06	4.008646e-07	7.439223e-09	2.891450e+00	4.871678e+02
2.470000e-06	2.486512e-07	7.294657e-09	1.793530e+00	4.771765e+02
2.480000e-06	9.634040e-08	7.138989e-09	6.949067e-01	4.667545e+02
2.490000e-06	-5.601267e-08	6.970545e-09	-4.040214e-01	4.558891e+02
2.500000e-06	-2.083463e-07	6.794323e-09	-1.502809e+00	4.445737e+02
2.510000e-06	-3.605515e-07	6.615730e-09	-2.600671e+00	4.328037e+02
2.520000e-06	-5.125826e-07	6.433866e-09	-3.697277e+00	4.205709e+02
2.530000e-06	-6.643882e-07	6.239886e-09	-4.792255e+00	4.078595e+02
2.540000e-06	-8.159659e-07	6.031857e-09	-5.885591e+00	3.946431e+02
2.550000e-06	-9.672857e-07	5.814590e-09	-6.977066e+00	3.808847e+02
2.560000e-06	-1.118232e-06	5.597877e-09	-8.065850e+00	3.665371e+02
2.570000e-06	-1.268752e-06	5.378277e-09	-9.151550e+00	3.515444e+02
2.580000e-06	-1.418803e-06	5.141945e-09	-1.023388e+01	3.358418e+02
2.590000e-06	-1.568346e-06	4.887349e-09	-1.131253e+01	3.193529e+02
2.600000e-06	-1.717286e-06	4.618374e-09	-1.238684e+01	3.019839e+02
2.610000e-06	-1.865582e-06	4.340648e-09	-1.345651e+01	2.836150e+02
2.620000e-06	-2.013277e-06	4.049639e-09	-1.452184e+01	2.640921e+02
2.630000e-06	-2.160320e-06	3.732516e-09	-1.558247e+01	2.432208e+02
2.640000e-06	-2.306560e-06	3.384479e-09	-1.663730e+01	2.207664e+02
2.650000e-06	-2.451904e-06	3.008573e-09	-1.768567e+01	1.964633e+02
2.660000e-06	-2.596327e-06	2.608421e-09	-1.872740e+01	1.700344e+02
2.670000e-06	-2.739798e-06	2.176586e-09	-1.976226e+01	1.412213e+02
2.680000e-06	-2.882268e-06	1.702103e-09	-2.078991e+01	1.098204e+02
2.690000e-06	-3.023581e-06	1.180834e-09	-2.180919e+01	7.572239e+01
2.700000e-06	-3.163725e-06	6.167881e-10	-2.282006e+01	3.894648e+01
2.710000e-06	-3.302762e-06	1.877191e-11	-2.382294e+01	-3.348575e-01
2.720000e-06	-3.440549e-06	-6.099516e-10	-2.481680e+01	-4.178722e+01
2.730000e-06	-3.577033e-06	-1.267962e-09	-2.580127e+01	-8.492402e+01
2.740000e-06	-3.712216e-06	-1.948133e-09	-2.677634e+01	-1.291347e+02
2.750000e-06	-3.846021e-06	-2.635584e-09	-2.774149e+01	-1.737286e+02
2.760000e-06	-3.978447e-06	-3.311886e-09	-2.869668e+01	-2.179879e+02
2.770000e-06	-4.109473e-06	-3.969831e-09	-2.964177e+01	-2.612235e+02
2.780000e-06	-4.239033e-06	-4.607468e-09	-3.057630e+01	-3.028255e+02
2.790000e-06	-4.367078e-06	-5.216128e-09	-3.149989e+01	-3.423016e+02
2.800000e-06	-4.493584e-06	-5.785916e-09	-3.241238e+01	-3.793001e+02
2.810000e-06	-4.618531e-06	-6.310230e-09	-3.331363e+01	-4.136151e+02
2.820000e-06	-4.741840e-06	-6.791339e-09	-3.420306e+01	-4.451760e+02
2.830000e-06	-4.863443e-06	-7.230645e-09	-3.508019e+01	-4.740246e+02
2.840000e-06	-4.983249e-06	-7.633728e-09	-3.594435e+01	-5.002853e+02
2.850000e-06	-5.101119e-06	-8.001958e-09	-3.679455e+01	-5.241340e+02
2.860000e-06	-5.216933e-06	-8.334623e-09	-3.762992e+01	-5.457699e+02
2.870000e-06	-5.330655e-06	-8.636106e-09	-3.845020e+01	-5.653944e+02
2.880000e-06	-5.442272e-06	-8.911872e-09	-3.925530e+01	-5.831972e+02
2.890000e-06	-5.551845e-06	-9.162164e-09	-4.004565e+01	-5.993503e+02
2.900000e-06	-5.659491e-06	-9.385783e-09	-4.082211e+01	-6.140072e+02
2.910000e-06	-5.765224e-06	-9.587607e-09	-4.158477e+01	-6.273063e+02
2.920000e-06	-5.868951e-06	-9.769573e-09	-4.233295e+01	-6.393740e+02
2.930000e-06	-5.970487e-06	-9.935845e-09	-4.306534e+01	-6.503286e+02
2.940000e-06	-6.069782e-06	-1.008913e-08	-4.378155e+01	-6.602806e+02
