# Temperatura_=_20.0
# Concentracion g/m^3_=_8460.0
# C_Vs_to_Am_M_A/Vsm_=_65563218390.804596
# pendiente_HvsI_1/m_=_3716.3
# ordenada_HvsI_A/m_=_1297.0
# frecuencia_Hz_=_301434.9516268158

Tiempo_(s)	Campo_(V.s)	Magnetizacion_(V.s)	Campo_(kA/m)	Magnetizacion_(A/m)
0.000000e+00	-8.119386e-06	-8.930134e-09	-5.767253e+01	-5.838115e+02
1.000000e-08	-8.117480e-06	-8.937914e-09	-5.765899e+01	-5.836950e+02
2.000000e-08	-8.112805e-06	-8.929107e-09	-5.762578e+01	-5.835217e+02
3.000000e-08	-8.105600e-06	-8.920458e-09	-5.757461e+01	-5.832976e+02
4.000000e-08	-8.095633e-06	-8.917165e-09	-5.750381e+01	-5.830320e+02
5.000000e-08	-8.082743e-06	-8.914760e-09	-5.741225e+01	-5.827376e+02
6.000000e-08	-8.066851e-06	-8.906012e-09	-5.729937e+01	-5.824288e+02
7.000000e-08	-8.048290e-06	-8.872711e-09	-5.716753e+01	-5.821200e+02
8.000000e-08	-8.027333e-06	-8.870581e-09	-5.701867e+01	-5.818216e+02
9.000000e-08	-8.003492e-06	-8.977870e-09	-5.684933e+01	-5.815368e+02
1.000000e-07	-7.976414e-06	-8.970235e-09	-5.665699e+01	-5.812577e+02
1.100000e-07	-7.946318e-06	-8.904218e-09	-5.644322e+01	-5.809646e+02
1.200000e-07	-7.913365e-06	-8.899074e-09	-5.620915e+01	-5.806274e+02
1.300000e-07	-7.877626e-06	-8.914869e-09	-5.595529e+01	-5.802107e+02
1.400000e-07	-7.839608e-06	-8.828820e-09	-5.568525e+01	-5.796809e+02
1.500000e-07	-7.799490e-06	-8.798753e-09	-5.540028e+01	-5.790146e+02
1.600000e-07	-7.756625e-06	-8.965975e-09	-5.509582e+01	-5.782054e+02
1.700000e-07	-7.710881e-06	-8.710583e-09	-5.477089e+01	-5.772679e+02
1.800000e-07	-7.662414e-06	-8.735897e-09	-5.442663e+01	-5.762369e+02
1.900000e-07	-7.610854e-06	-8.834671e-09	-5.406039e+01	-5.751614e+02
2.000000e-07	-7.556283e-06	-8.685276e-09	-5.367277e+01	-5.740956e+02
2.100000e-07	-7.498869e-06	-8.719314e-09	-5.326496e+01	-5.730870e+02
2.200000e-07	-7.438749e-06	-8.661416e-09	-5.283792e+01	-5.721663e+02
2.300000e-07	-7.376070e-06	-8.712904e-09	-5.239271e+01	-5.713411e+02
2.400000e-07	-7.310622e-06	-8.681255e-09	-5.192783e+01	-5.705941e+02
2.500000e-07	-7.242497e-06	-8.673816e-09	-5.144393e+01	-5.698884e+02
2.600000e-07	-7.171789e-06	-8.679119e-09	-5.094169e+01	-5.691762e+02
2.700000e-07	-7.098285e-06	-8.618956e-09	-5.041958e+01	-5.684109e+02
2.800000e-07	-7.021987e-06	-8.628248e-09	-4.987763e+01	-5.675575e+02
2.900000e-07	-6.942979e-06	-8.609087e-09	-4.931643e+01	-5.665999e+02
3.000000e-07	-6.861346e-06	-8.650280e-09	-4.873659e+01	-5.655429e+02
3.100000e-07	-6.777390e-06	-8.585334e-09	-4.814024e+01	-5.644084e+02
3.200000e-07	-6.691288e-06	-8.508821e-09	-4.752865e+01	-5.632270e+02
3.300000e-07	-6.602855e-06	-8.554342e-09	-4.690051e+01	-5.620283e+02
3.400000e-07	-6.511967e-06	-8.545623e-09	-4.625493e+01	-5.608316e+02
3.500000e-07	-6.418758e-06	-8.522464e-09	-4.559285e+01	-5.596410e+02
3.600000e-07	-6.323259e-06	-8.478195e-09	-4.491452e+01	-5.584446e+02
3.700000e-07	-6.225439e-06	-8.462044e-09	-4.421970e+01	-5.572198e+02
3.800000e-07	-6.125351e-06	-8.435618e-09	-4.350877e+01	-5.559410e+02
3.900000e-07	-6.023068e-06	-8.427789e-09	-4.278225e+01	-5.545885e+02
4.000000e-07	-5.918599e-06	-8.436180e-09	-4.204019e+01	-5.531552e+02
4.100000e-07	-5.811958e-06	-8.398744e-09	-4.128272e+01	-5.516488e+02
4.200000e-07	-5.703264e-06	-8.352976e-09	-4.051066e+01	-5.500894e+02
4.300000e-07	-5.592621e-06	-8.320393e-09	-3.972475e+01	-5.485026e+02
4.400000e-07	-5.479823e-06	-8.340098e-09	-3.892354e+01	-5.469105e+02
4.500000e-07	-5.364731e-06	-8.333764e-09	-3.810604e+01	-5.453237e+02
4.600000e-07	-5.247576e-06	-8.279721e-09	-3.727388e+01	-5.437362e+02
4.700000e-07	-5.128556e-06	-8.226877e-09	-3.642847e+01	-5.421265e+02
4.800000e-07	-5.007658e-06	-8.210294e-09	-3.556972e+01	-5.404628e+02
4.900000e-07	-4.884908e-06	-8.205337e-09	-3.469782e+01	-5.387121e+02
5.000000e-07	-4.760411e-06	-8.173648e-09	-3.381351e+01	-5.368508e+02
5.100000e-07	-4.634301e-06	-8.134956e-09	-3.291774e+01	-5.348721e+02
5.200000e-07	-4.506547e-06	-8.084594e-09	-3.201030e+01	-5.327892e+02
5.300000e-07	-4.377051e-06	-8.042299e-09	-3.109048e+01	-5.306325e+02
5.400000e-07	-4.245940e-06	-8.030212e-09	-3.015919e+01	-5.284406e+02
5.500000e-07	-4.113273e-06	-8.029504e-09	-2.921684e+01	-5.262496e+02
5.600000e-07	-3.979238e-06	-7.988723e-09	-2.826479e+01	-5.240817e+02
5.700000e-07	-3.843860e-06	-7.918040e-09	-2.730319e+01	-5.219377e+02
5.800000e-07	-3.706933e-06	-7.886114e-09	-2.633059e+01	-5.197957e+02
5.900000e-07	-3.568542e-06	-7.884451e-09	-2.534759e+01	-5.176160e+02
6.000000e-07	-3.428856e-06	-7.866405e-09	-2.435539e+01	-5.153521e+02
6.100000e-07	-3.287818e-06	-7.813209e-09	-2.335358e+01	-5.129632e+02
6.200000e-07	-3.145307e-06	-7.758100e-09	-2.234132e+01	-5.104252e+02
6.300000e-07	-3.001494e-06	-7.714652e-09	-2.131981e+01	-5.077379e+02
6.400000e-07	-2.856649e-06	-7.681406e-09	-2.029097e+01	-5.049238e+02
6.500000e-07	-2.710870e-06	-7.656211e-09	-1.925549e+01	-5.020209e+02
6.600000e-07	-2.564250e-06	-7.610856e-09	-1.821404e+01	-4.990703e+02
6.700000e-07	-2.416825e-06	-7.542002e-09	-1.716687e+01	-4.961031e+02
6.800000e-07	-2.268560e-06	-7.483213e-09	-1.611373e+01	-4.931292e+02
6.900000e-07	-2.119482e-06	-7.459135e-09	-1.505482e+01	-4.901336e+02
7.000000e-07	-1.969633e-06	-7.431121e-09	-1.399043e+01	-4.870794e+02
7.100000e-07	-1.819201e-06	-7.374505e-09	-1.292190e+01	-4.839181e+02
7.200000e-07	-1.668332e-06	-7.304421e-09	-1.185027e+01	-4.806034e+02
7.300000e-07	-1.516759e-06	-7.246870e-09	-1.077364e+01	-4.771055e+02
7.400000e-07	-1.364290e-06	-7.202925e-09	-9.690639e+00	-4.734190e+02
7.500000e-07	-1.211177e-06	-7.159172e-09	-8.603067e+00	-4.695650e+02
7.600000e-07	-1.057658e-06	-7.103128e-09	-7.512617e+00	-4.655828e+02
7.700000e-07	-9.037892e-07	-7.024102e-09	-6.419674e+00	-4.615161e+02
7.800000e-07	-7.496387e-07	-6.951110e-09	-5.324733e+00	-4.573965e+02
7.900000e-07	-5.952610e-07	-6.897608e-09	-4.228178e+00	-4.532288e+02
8.000000e-07	-4.407128e-07	-6.850341e-09	-3.130412e+00	-4.489843e+02
8.100000e-07	-2.860320e-07	-6.780091e-09	-2.031704e+00	-4.446034e+02
8.200000e-07	-1.312702e-07	-6.688309e-09	-9.324210e-01	-4.400075e+02
8.300000e-07	2.351060e-08	-6.601719e-09	1.669974e-01	-4.351180e+02
8.400000e-07	1.782961e-07	-6.530069e-09	1.266449e+00	-4.298762e+02
8.500000e-07	3.329786e-07	-6.461252e-09	2.365169e+00	-4.242586e+02
8.600000e-07	4.875470e-07	-6.374038e-09	3.463078e+00	-4.182826e+02
8.700000e-07	6.420173e-07	-6.270559e-09	4.560291e+00	-4.120000e+02
8.800000e-07	7.962927e-07	-6.160128e-09	5.656119e+00	-4.054804e+02
8.900000e-07	9.503234e-07	-6.063899e-09	6.750209e+00	-3.987874e+02
9.000000e-07	1.104092e-06	-5.975937e-09	7.842438e+00	-3.919557e+02
9.100000e-07	1.257442e-06	-5.869079e-09	8.931693e+00	-3.849747e+02
9.200000e-07	1.410192e-06	-5.741392e-09	1.001668e+01	-3.777831e+02
9.300000e-07	1.562287e-06	-5.613557e-09	1.109703e+01	-3.702784e+02
9.400000e-07	1.713668e-06	-5.500419e-09	1.217229e+01	-3.623349e+02
9.500000e-07	1.864339e-06	-5.385045e-09	1.324252e+01	-3.538271e+02
9.600000e-07	2.014376e-06	-5.250282e-09	1.430824e+01	-3.446481e+02
9.700000e-07	2.163742e-06	-5.089392e-09	1.536920e+01	-3.347163e+02
9.800000e-07	2.312395e-06	-4.917040e-09	1.642509e+01	-3.239648e+02
9.900000e-07	2.460225e-06	-4.746847e-09	1.747514e+01	-3.123134e+02
1.000000e-06	2.607192e-06	-4.567408e-09	1.851906e+01	-2.996296e+02
1.010000e-06	2.753371e-06	-4.357492e-09	1.955737e+01	-2.856877e+02
1.020000e-06	2.898612e-06	-4.106012e-09	2.058903e+01	-2.701406e+02
1.030000e-06	3.042725e-06	-3.823663e-09	2.161268e+01	-2.525141e+02
1.040000e-06	3.185688e-06	-3.514234e-09	2.262815e+01	-2.322347e+02
1.050000e-06	3.327471e-06	-3.164446e-09	2.363524e+01	-2.086901e+02
1.060000e-06	3.468004e-06	-2.752436e-09	2.463346e+01	-1.813168e+02
1.070000e-06	3.607208e-06	-2.264849e-09	2.562224e+01	-1.497020e+02
1.080000e-06	3.745008e-06	-1.708017e-09	2.660104e+01	-1.136795e+02
1.090000e-06	3.881283e-06	-1.095418e-09	2.756901e+01	-7.340254e+01
1.100000e-06	4.016092e-06	-4.331151e-10	2.852656e+01	-2.937550e+01
1.110000e-06	4.149553e-06	2.830186e-10	2.947455e+01	1.756374e+01
1.120000e-06	4.281564e-06	1.039517e-09	3.041223e+01	6.631082e+01
1.130000e-06	4.412107e-06	1.805536e-09	3.133948e+01	1.156020e+02
1.140000e-06	4.541038e-06	2.546570e-09	3.225529e+01	1.641438e+02
1.150000e-06	4.668246e-06	3.246215e-09	3.315886e+01	2.107446e+02
1.160000e-06	4.793857e-06	3.900353e-09	3.405108e+01	2.544254e+02
1.170000e-06	4.917870e-06	4.506409e-09	3.493195e+01	2.944949e+02
1.180000e-06	5.040203e-06	5.056279e-09	3.580089e+01	3.305781e+02
1.190000e-06	5.160668e-06	5.539542e-09	3.665656e+01	3.625993e+02
1.200000e-06	5.279212e-06	5.958382e-09	3.749859e+01	3.907273e+02
1.210000e-06	5.395844e-06	6.324957e-09	3.832703e+01	4.152976e+02
1.220000e-06	5.510318e-06	6.654351e-09	3.914015e+01	4.367282e+02
1.230000e-06	5.622557e-06	6.945668e-09	3.993739e+01	4.554454e+02
1.240000e-06	5.732771e-06	7.193850e-09	4.072025e+01	4.718302e+02
1.250000e-06	5.841072e-06	7.402918e-09	4.148952e+01	4.861918e+02
1.260000e-06	5.947340e-06	7.586181e-09	4.224434e+01	4.987655e+02
1.270000e-06	6.051368e-06	7.752070e-09	4.298326e+01	5.097294e+02
1.280000e-06	6.153211e-06	7.901154e-09	4.370666e+01	5.192303e+02
1.290000e-06	6.252926e-06	8.024975e-09	4.441494e+01	5.274082e+02
1.300000e-06	6.350228e-06	8.123333e-09	4.510608e+01	5.344129e+02
1.310000e-06	6.445139e-06	8.207328e-09	4.578024e+01	5.404094e+02
1.320000e-06	6.537933e-06	8.285333e-09	4.643936e+01	5.455705e+02
1.330000e-06	6.628512e-06	8.358739e-09	4.708276e+01	5.500627e+02
1.340000e-06	6.716716e-06	8.422441e-09	4.770927e+01	5.540301e+02
1.350000e-06	6.802576e-06	8.474250e-09	4.831914e+01	5.575819e+02
1.360000e-06	6.886136e-06	8.518091e-09	4.891267e+01	5.607868e+02
1.370000e-06	6.967229e-06	8.558516e-09	4.948868e+01	5.636778e+02
1.380000e-06	7.045770e-06	8.597991e-09	5.004656e+01	5.662626e+02
1.390000e-06	7.121795e-06	8.632747e-09	5.058658e+01	5.685392e+02
1.400000e-06	7.195064e-06	8.658306e-09	5.110701e+01	5.705104e+02
1.410000e-06	7.265645e-06	8.678036e-09	5.160835e+01	5.721939e+02
1.420000e-06	7.333806e-06	8.698378e-09	5.209250e+01	5.736256e+02
1.430000e-06	7.399335e-06	8.721559e-09	5.255796e+01	5.748561e+02
1.440000e-06	7.462170e-06	8.741553e-09	5.300428e+01	5.759420e+02
1.450000e-06	7.522521e-06	8.756046e-09	5.343296e+01	5.769349e+02
1.460000e-06	7.580223e-06	8.768599e-09	5.384282e+01	5.778721e+02
1.470000e-06	7.635170e-06	8.781371e-09	5.423311e+01	5.787715e+02
1.480000e-06	7.687244e-06	8.795669e-09	5.460300e+01	5.796311e+02
1.490000e-06	7.736176e-06	8.808320e-09	5.495056e+01	5.804342e+02
1.500000e-06	7.782173e-06	8.817206e-09	5.527728e+01	5.811581e+02
1.510000e-06	7.825472e-06	8.824247e-09	5.558484e+01	5.817821e+02
1.520000e-06	7.865941e-06	8.832163e-09	5.587229e+01	5.822955e+02
1.530000e-06	7.903613e-06	8.843372e-09	5.613988e+01	5.827008e+02
1.540000e-06	7.938623e-06	8.852794e-09	5.638856e+01	5.830131e+02
1.550000e-06	7.970792e-06	8.857630e-09	5.661705e+01	5.832563e+02
1.560000e-06	8.000147e-06	8.860563e-09	5.682556e+01	5.834570e+02
1.570000e-06	8.026697e-06	8.864835e-09	5.701416e+01	5.836383e+02
1.580000e-06	8.050311e-06	8.869804e-09	5.718188e+01	5.838157e+02
1.590000e-06	8.071203e-06	8.872052e-09	5.733028e+01	5.839947e+02
1.600000e-06	8.089340e-06	8.873115e-09	5.745911e+01	5.841718e+02
1.610000e-06	8.104487e-06	8.874092e-09	5.756670e+01	5.843367e+02
1.620000e-06	8.116568e-06	8.877016e-09	5.765251e+01	5.844764e+02
1.630000e-06	8.125539e-06	8.881814e-09	5.771624e+01	5.845777e+02
1.640000e-06	8.131600e-06	8.887006e-09	5.775929e+01	5.846299e+02
1.650000e-06	8.134826e-06	8.891242e-09	5.778220e+01	5.846261e+02
1.660000e-06	8.135186e-06	8.894980e-09	5.778476e+01	5.845627e+02
1.670000e-06	8.132910e-06	8.884626e-09	5.776859e+01	5.844399e+02
1.680000e-06	8.127981e-06	8.883574e-09	5.773358e+01	5.842607e+02
1.690000e-06	8.120251e-06	8.883027e-09	5.767867e+01	5.840316e+02
1.700000e-06	8.109856e-06	8.878248e-09	5.760484e+01	5.837622e+02
1.710000e-06	8.096665e-06	8.879111e-09	5.751114e+01	5.834654e+02
1.720000e-06	8.080675e-06	8.894691e-09	5.739756e+01	5.831559e+02
1.730000e-06	8.062263e-06	8.923572e-09	5.726678e+01	5.828477e+02
1.740000e-06	8.041247e-06	8.794888e-09	5.711751e+01	5.825508e+02
1.750000e-06	8.016802e-06	8.762125e-09	5.694387e+01	5.822671e+02
1.760000e-06	7.988574e-06	8.829055e-09	5.674336e+01	5.819876e+02
1.770000e-06	7.957104e-06	8.815177e-09	5.651983e+01	5.816912e+02
1.780000e-06	7.923205e-06	8.786745e-09	5.627904e+01	5.813471e+02
1.790000e-06	7.887157e-06	8.918670e-09	5.602299e+01	5.809197e+02
1.800000e-06	7.848799e-06	8.843666e-09	5.575053e+01	5.803761e+02
1.810000e-06	7.808082e-06	8.695192e-09	5.546132e+01	5.796944e+02
1.820000e-06	7.764766e-06	8.931247e-09	5.515364e+01	5.788703e+02
1.830000e-06	7.718794e-06	8.769046e-09	5.482710e+01	5.779207e+02
1.840000e-06	7.669950e-06	8.817482e-09	5.448016e+01	5.768823e+02
1.850000e-06	7.618078e-06	8.842866e-09	5.411171e+01	5.758052e+02
1.860000e-06	7.563272e-06	8.715159e-09	5.372241e+01	5.747434e+02
1.870000e-06	7.505610e-06	8.872731e-09	5.331284e+01	5.737430e+02
1.880000e-06	7.445434e-06	8.719588e-09	5.288540e+01	5.728326e+02
1.890000e-06	7.382472e-06	8.808718e-09	5.243818e+01	5.720168e+02
1.900000e-06	7.316575e-06	8.718683e-09	5.197011e+01	5.712763e+02
1.910000e-06	7.247919e-06	8.649169e-09	5.148244e+01	5.705721e+02
1.920000e-06	7.176554e-06	8.773052e-09	5.097553e+01	5.698563e+02
1.930000e-06	7.102655e-06	8.702616e-09	5.045062e+01	5.690829e+02
1.940000e-06	7.025926e-06	8.751267e-09	4.990561e+01	5.682186e+02
1.950000e-06	6.946380e-06	8.577069e-09	4.934059e+01	5.672497e+02
1.960000e-06	6.864426e-06	8.651461e-09	4.875847e+01	5.661830e+02
1.970000e-06	6.780094e-06	8.686801e-09	4.815945e+01	5.650418e+02
1.980000e-06	6.693275e-06	8.626867e-09	4.754277e+01	5.638572e+02
1.990000e-06	6.604004e-06	8.637242e-09	4.690867e+01	5.626580e+02
2.000000e-06	6.512459e-06	8.542714e-09	4.625842e+01	5.614620e+02
2.010000e-06	6.418597e-06	8.580428e-09	4.559171e+01	5.602714e+02
2.020000e-06	6.322442e-06	8.545477e-09	4.490872e+01	5.590731e+02
2.030000e-06	6.224169e-06	8.599251e-09	4.421068e+01	5.578437e+02
2.040000e-06	6.123734e-06	8.528657e-09	4.349728e+01	5.565576e+02
2.050000e-06	6.020902e-06	8.457634e-09	4.276686e+01	5.551965e+02
2.060000e-06	5.915835e-06	8.431873e-09	4.202057e+01	5.537546e+02
2.070000e-06	5.808857e-06	8.456829e-09	4.126069e+01	5.522413e+02
2.080000e-06	5.699903e-06	8.473321e-09	4.048678e+01	5.506777e+02
2.090000e-06	5.588853e-06	8.383034e-09	3.969799e+01	5.490894e+02
2.100000e-06	5.475681e-06	8.334845e-09	3.889412e+01	5.474975e+02
2.110000e-06	5.360369e-06	8.316643e-09	3.807505e+01	5.459111e+02
2.120000e-06	5.242893e-06	8.350694e-09	3.724061e+01	5.443224e+02
2.130000e-06	5.123360e-06	8.325872e-09	3.639156e+01	5.427085e+02
2.140000e-06	5.001969e-06	8.287495e-09	3.552931e+01	5.410369e+02
2.150000e-06	4.878875e-06	8.222044e-09	3.465497e+01	5.392751e+02
2.160000e-06	4.753960e-06	8.188932e-09	3.376769e+01	5.374011e+02
2.170000e-06	4.627223e-06	8.193577e-09	3.286747e+01	5.354102e+02
2.180000e-06	4.498928e-06	8.204511e-09	3.195618e+01	5.333177e+02
2.190000e-06	4.369146e-06	8.148144e-09	3.103433e+01	5.311552e+02
2.200000e-06	4.237771e-06	8.058718e-09	3.010116e+01	5.289617e+02
2.210000e-06	4.104789e-06	8.028800e-09	2.915658e+01	5.267724e+02
2.220000e-06	3.970362e-06	8.047022e-09	2.820174e+01	5.246074e+02
2.230000e-06	3.834541e-06	8.037120e-09	2.723699e+01	5.224650e+02
2.240000e-06	3.697380e-06	7.964045e-09	2.626273e+01	5.203209e+02
2.250000e-06	3.558896e-06	7.893717e-09	2.527907e+01	5.181344e+02
2.260000e-06	3.419005e-06	7.855214e-09	2.428542e+01	5.158588e+02
2.270000e-06	3.277707e-06	7.847134e-09	2.328177e+01	5.134545e+02
2.280000e-06	3.135186e-06	7.832165e-09	2.226943e+01	5.109001e+02
2.290000e-06	2.991551e-06	7.784811e-09	2.124918e+01	5.081977e+02
2.300000e-06	2.846820e-06	7.699937e-09	2.022115e+01	5.053720e+02
2.310000e-06	2.701075e-06	7.646881e-09	1.918591e+01	5.024620e+02
2.320000e-06	2.554428e-06	7.645367e-09	1.814427e+01	4.995083e+02
2.330000e-06	2.406909e-06	7.634517e-09	1.709643e+01	4.965402e+02
2.340000e-06	2.258557e-06	7.566219e-09	1.604268e+01	4.935651e+02
2.350000e-06	2.109377e-06	7.476246e-09	1.498305e+01	4.905652e+02
2.360000e-06	1.959306e-06	7.424530e-09	1.391708e+01	4.875019e+02
2.370000e-06	1.808481e-06	7.404305e-09	1.284576e+01	4.843261e+02
2.380000e-06	1.657118e-06	7.373942e-09	1.177062e+01	4.809928e+02
2.390000e-06	1.505332e-06	7.309148e-09	1.069247e+01	4.774743e+02
2.400000e-06	1.353051e-06	7.220932e-09	9.610807e+00	4.737684e+02
2.410000e-06	1.200224e-06	7.148799e-09	8.525268e+00	4.698985e+02
2.420000e-06	1.046883e-06	7.118568e-09	7.436075e+00	4.659051e+02
2.430000e-06	8.931427e-07	7.091812e-09	6.344051e+00	4.618315e+02
2.440000e-06	7.391278e-07	7.019469e-09	5.250073e+00	4.577070e+02
2.450000e-06	5.849004e-07	6.917299e-09	4.154586e+00	4.535330e+02
2.460000e-06	4.305180e-07	6.839268e-09	3.057998e+00	4.492771e+02
2.470000e-06	2.759665e-07	6.797438e-09	1.960208e+00	4.448770e+02
2.480000e-06	1.212724e-07	6.751104e-09	8.614058e-01	4.402531e+02
2.490000e-06	-3.337132e-08	6.670037e-09	-2.370387e-01	4.353281e+02
2.500000e-06	-1.879273e-07	6.561717e-09	-1.334860e+00	4.300464e+02
2.510000e-06	-3.424454e-07	6.463433e-09	-2.432412e+00	4.243888e+02
2.520000e-06	-4.969282e-07	6.393271e-09	-3.529713e+00	4.183769e+02
2.530000e-06	-6.512809e-07	6.325041e-09	-4.626091e+00	4.120654e+02
2.540000e-06	-8.053349e-07	6.225273e-09	-5.720346e+00	4.055243e+02
2.550000e-06	-9.590943e-07	6.094441e-09	-6.812509e+00	3.988155e+02
2.560000e-06	-1.112542e-06	5.973774e-09	-7.902457e+00	3.919691e+02
2.570000e-06	-1.265526e-06	5.884152e-09	-8.989113e+00	3.849692e+02
2.580000e-06	-1.417991e-06	5.795749e-09	-1.007208e+01	3.777495e+02
2.590000e-06	-1.569857e-06	5.676232e-09	-1.115080e+01	3.702039e+02
2.600000e-06	-1.721110e-06	5.529226e-09	-1.222516e+01	3.622057e+02
2.610000e-06	-1.871935e-06	5.384384e-09	-1.329647e+01	3.536305e+02
2.620000e-06	-2.022194e-06	5.259617e-09	-1.436377e+01	3.443742e+02
2.630000e-06	-2.171576e-06	5.133123e-09	-1.542485e+01	3.343577e+02
2.640000e-06	-2.319970e-06	4.973208e-09	-1.647890e+01	3.235141e+02
2.650000e-06	-2.467466e-06	4.774857e-09	-1.752657e+01	3.117597e+02
2.660000e-06	-2.614225e-06	4.564148e-09	-1.856901e+01	2.989537e+02
2.670000e-06	-2.760186e-06	4.357035e-09	-1.960578e+01	2.848587e+02
2.680000e-06	-2.905128e-06	4.131771e-09	-2.063531e+01	2.691135e+02
2.690000e-06	-3.048998e-06	3.857307e-09	-2.165723e+01	2.512314e+02
2.700000e-06	-3.191861e-06	3.523798e-09	-2.267200e+01	2.306314e+02
2.710000e-06	-3.333545e-06	3.148098e-09	-2.367839e+01	2.067016e+02
2.720000e-06	-3.473772e-06	2.739205e-09	-2.467443e+01	1.788900e+02
2.730000e-06	-3.612563e-06	2.276915e-09	-2.566027e+01	1.468056e+02
2.740000e-06	-3.750106e-06	1.731083e-09	-2.663725e+01	1.103137e+02
2.750000e-06	-3.886288e-06	1.096936e-09	-2.760456e+01	6.960457e+01
2.760000e-06	-4.021067e-06	4.054557e-10	-2.856190e+01	2.521992e+01
2.770000e-06	-4.154421e-06	-3.099966e-10	-2.950912e+01	-2.196975e+01
2.780000e-06	-4.286199e-06	-1.043016e-09	-3.044515e+01	-7.083730e+01
2.790000e-06	-4.416536e-06	-1.796683e-09	-3.137095e+01	-1.201094e+02
2.800000e-06	-4.545396e-06	-2.551249e-09	-3.228624e+01	-1.684974e+02
2.810000e-06	-4.672648e-06	-3.269264e-09	-3.319013e+01	-2.148277e+02
2.820000e-06	-4.798207e-06	-3.924558e-09	-3.408198e+01	-2.581492e+02
2.830000e-06	-4.921943e-06	-4.516623e-09	-3.496088e+01	-2.978040e+02
2.840000e-06	-5.044009e-06	-5.057360e-09	-3.582793e+01	-3.334508e+02
2.850000e-06	-5.164356e-06	-5.553951e-09	-3.668276e+01	-3.650432e+02
2.860000e-06	-5.282667e-06	-5.995809e-09	-3.752313e+01	-3.927719e+02
2.870000e-06	-5.398769e-06	-6.370225e-09	-3.834781e+01	-4.169852e+02
2.880000e-06	-5.512617e-06	-6.686134e-09	-3.915648e+01	-4.381053e+02
2.890000e-06	-5.624237e-06	-6.966986e-09	-3.994932e+01	-4.565555e+02
2.900000e-06	-5.733782e-06	-7.225919e-09	-4.072743e+01	-4.727102e+02
2.910000e-06	-5.841480e-06	-7.454464e-09	-4.149241e+01	-4.868703e+02
2.920000e-06	-5.947274e-06	-7.643149e-09	-4.224388e+01	-4.992638e+02
2.930000e-06	-6.050934e-06	-7.797459e-09	-4.298018e+01	-5.100644e+02
2.940000e-06	-6.152288e-06	-7.932944e-09	-4.370010e+01	-5.194168e+02
