# Temperatura_=_20.0
# Concentracion g/m^3_=_8460.0
# C_Vs_to_Am_M_A/Vsm_=_65563218390.804596
# pendiente_HvsI_1/m_=_3716.3
# ordenada_HvsI_A/m_=_1297.0
# frecuencia_Hz_=_301634.1251402439

Tiempo_(s)	Campo_(V.s)	Magnetizacion_(V.s)	Campo_(kA/m)	Magnetizacion_(A/m)
0.000000e+00	-7.903763e-06	-7.897963e-09	-5.757642e+01	-5.167033e+02
1.000000e-08	-7.900224e-06	-7.903458e-09	-5.755064e+01	-5.165265e+02
2.000000e-08	-7.894165e-06	-7.897623e-09	-5.750650e+01	-5.163187e+02
3.000000e-08	-7.885543e-06	-7.891907e-09	-5.744369e+01	-5.160935e+02
4.000000e-08	-7.874093e-06	-7.886727e-09	-5.736029e+01	-5.158559e+02
5.000000e-08	-7.859676e-06	-7.882054e-09	-5.725526e+01	-5.156014e+02
6.000000e-08	-7.842464e-06	-7.876064e-09	-5.712988e+01	-5.153182e+02
7.000000e-08	-7.822895e-06	-7.861636e-09	-5.698732e+01	-5.149913e+02
8.000000e-08	-7.800938e-06	-7.872547e-09	-5.682738e+01	-5.146077e+02
9.000000e-08	-7.776032e-06	-7.922082e-09	-5.664594e+01	-5.141610e+02
1.000000e-07	-7.747930e-06	-7.870423e-09	-5.644123e+01	-5.136539e+02
1.100000e-07	-7.716929e-06	-7.819612e-09	-5.621539e+01	-5.130976e+02
1.200000e-07	-7.683173e-06	-7.827064e-09	-5.596949e+01	-5.125093e+02
1.300000e-07	-7.646793e-06	-7.844664e-09	-5.570447e+01	-5.119072e+02
1.400000e-07	-7.608221e-06	-7.826251e-09	-5.542349e+01	-5.113054e+02
1.500000e-07	-7.567512e-06	-7.780708e-09	-5.512694e+01	-5.107103e+02
1.600000e-07	-7.524162e-06	-7.855349e-09	-5.481115e+01	-5.101190e+02
1.700000e-07	-7.478072e-06	-7.729405e-09	-5.447540e+01	-5.095206e+02
1.800000e-07	-7.429316e-06	-7.719919e-09	-5.412022e+01	-5.088993e+02
1.900000e-07	-7.377545e-06	-7.819038e-09	-5.374309e+01	-5.082396e+02
2.000000e-07	-7.322874e-06	-7.705043e-09	-5.334483e+01	-5.075303e+02
2.100000e-07	-7.265530e-06	-7.703589e-09	-5.292710e+01	-5.067673e+02
2.200000e-07	-7.205538e-06	-7.687302e-09	-5.249007e+01	-5.059543e+02
2.300000e-07	-7.143007e-06	-7.707129e-09	-5.203455e+01	-5.051007e+02
2.400000e-07	-7.077790e-06	-7.714594e-09	-5.155947e+01	-5.042177e+02
2.500000e-07	-7.009908e-06	-7.668001e-09	-5.106497e+01	-5.033146e+02
2.600000e-07	-6.939456e-06	-7.668949e-09	-5.055175e+01	-5.023948e+02
2.700000e-07	-6.866389e-06	-7.619185e-09	-5.001948e+01	-5.014550e+02
2.800000e-07	-6.790652e-06	-7.626372e-09	-4.946776e+01	-5.004856e+02
2.900000e-07	-6.712254e-06	-7.618910e-09	-4.889665e+01	-4.994737e+02
3.000000e-07	-6.631234e-06	-7.615117e-09	-4.830645e+01	-4.984073e+02
3.100000e-07	-6.547802e-06	-7.573588e-09	-4.769867e+01	-4.972791e+02
3.200000e-07	-6.462298e-06	-7.507592e-09	-4.707581e+01	-4.960890e+02
3.300000e-07	-6.374646e-06	-7.553430e-09	-4.643729e+01	-4.948445e+02
3.400000e-07	-6.284715e-06	-7.532283e-09	-4.578216e+01	-4.935587e+02
3.500000e-07	-6.192477e-06	-7.497274e-09	-4.511024e+01	-4.922466e+02
3.600000e-07	-6.097990e-06	-7.460660e-09	-4.442193e+01	-4.909210e+02
3.700000e-07	-6.001374e-06	-7.446103e-09	-4.371812e+01	-4.895887e+02
3.800000e-07	-5.902487e-06	-7.431104e-09	-4.299776e+01	-4.882490e+02
3.900000e-07	-5.801422e-06	-7.417704e-09	-4.226153e+01	-4.868936e+02
4.000000e-07	-5.698369e-06	-7.420463e-09	-4.151082e+01	-4.855093e+02
4.100000e-07	-5.593266e-06	-7.376174e-09	-4.074518e+01	-4.840817e+02
4.200000e-07	-5.486101e-06	-7.343602e-09	-3.996451e+01	-4.825991e+02
4.300000e-07	-5.376917e-06	-7.320184e-09	-3.916914e+01	-4.810546e+02
4.400000e-07	-5.265748e-06	-7.328920e-09	-3.835931e+01	-4.794479e+02
4.500000e-07	-5.152594e-06	-7.301830e-09	-3.753502e+01	-4.777836e+02
4.600000e-07	-5.037455e-06	-7.250173e-09	-3.669627e+01	-4.760686e+02
4.700000e-07	-4.920321e-06	-7.210334e-09	-3.584299e+01	-4.743090e+02
4.800000e-07	-4.801305e-06	-7.193366e-09	-3.497599e+01	-4.725074e+02
4.900000e-07	-4.680553e-06	-7.179571e-09	-3.409635e+01	-4.706611e+02
5.000000e-07	-4.558173e-06	-7.144567e-09	-3.320485e+01	-4.687634e+02
5.100000e-07	-4.434166e-06	-7.108720e-09	-3.230150e+01	-4.668053e+02
5.200000e-07	-4.308542e-06	-7.062407e-09	-3.138637e+01	-4.647790e+02
5.300000e-07	-4.181300e-06	-7.031369e-09	-3.045945e+01	-4.626804e+02
5.400000e-07	-4.052552e-06	-7.014673e-09	-2.952157e+01	-4.605113e+02
5.500000e-07	-3.922458e-06	-6.996711e-09	-2.857387e+01	-4.582787e+02
5.600000e-07	-3.790955e-06	-6.946651e-09	-2.761591e+01	-4.559933e+02
5.700000e-07	-3.658046e-06	-6.890509e-09	-2.664771e+01	-4.536655e+02
5.800000e-07	-3.523706e-06	-6.864765e-09	-2.566908e+01	-4.513022e+02
5.900000e-07	-3.387990e-06	-6.849694e-09	-2.468044e+01	-4.489041e+02
6.000000e-07	-3.251053e-06	-6.814318e-09	-2.368290e+01	-4.464647e+02
6.100000e-07	-3.113059e-06	-6.757722e-09	-2.267765e+01	-4.439719e+02
6.200000e-07	-2.973905e-06	-6.711053e-09	-2.166396e+01	-4.414116e+02
6.300000e-07	-2.833283e-06	-6.674456e-09	-2.063958e+01	-4.387712e+02
6.400000e-07	-2.691409e-06	-6.642781e-09	-1.960607e+01	-4.360434e+02
6.500000e-07	-2.548656e-06	-6.606257e-09	-1.856615e+01	-4.332284e+02
6.600000e-07	-2.405009e-06	-6.555934e-09	-1.751973e+01	-4.303329e+02
6.700000e-07	-2.260523e-06	-6.493370e-09	-1.646720e+01	-4.273678e+02
6.800000e-07	-2.115267e-06	-6.444578e-09	-1.540905e+01	-4.243435e+02
6.900000e-07	-1.969149e-06	-6.416002e-09	-1.434463e+01	-4.212656e+02
7.000000e-07	-1.822257e-06	-6.376358e-09	-1.327456e+01	-4.181315e+02
7.100000e-07	-1.674795e-06	-6.316927e-09	-1.220035e+01	-4.149297e+02
7.200000e-07	-1.526831e-06	-6.256235e-09	-1.112248e+01	-4.116418e+02
7.300000e-07	-1.378272e-06	-6.211586e-09	-1.004028e+01	-4.082467e+02
7.400000e-07	-1.229187e-06	-6.166927e-09	-8.954243e+00	-4.047259e+02
7.500000e-07	-1.079754e-06	-6.114377e-09	-7.865667e+00	-4.010678e+02
7.600000e-07	-9.300262e-07	-6.051355e-09	-6.774948e+00	-3.972702e+02
7.700000e-07	-7.800080e-07	-5.978439e-09	-5.682112e+00	-3.933389e+02
7.800000e-07	-6.296587e-07	-5.911227e-09	-4.586865e+00	-3.892844e+02
7.900000e-07	-4.790922e-07	-5.855737e-09	-3.490036e+00	-3.851152e+02
8.000000e-07	-3.283691e-07	-5.799987e-09	-2.392065e+00	-3.808319e+02
8.100000e-07	-1.774767e-07	-5.724670e-09	-1.292862e+00	-3.764228e+02
8.200000e-07	-2.648536e-08	-5.642323e-09	-1.929375e-01	-3.718636e+02
8.300000e-07	1.245436e-07	-5.571892e-09	9.072610e-01	-3.671201e+02
8.400000e-07	2.755042e-07	-5.509456e-09	2.006961e+00	-3.621555e+02
8.500000e-07	4.263299e-07	-5.436778e-09	3.105679e+00	-3.569386e+02
8.600000e-07	5.769677e-07	-5.348377e-09	4.203028e+00	-3.514515e+02
8.700000e-07	7.273558e-07	-5.253600e-09	5.298558e+00	-3.456938e+02
8.800000e-07	8.774765e-07	-5.158905e-09	6.392139e+00	-3.396817e+02
8.900000e-07	1.027287e-06	-5.069057e-09	7.483465e+00	-3.334428e+02
9.000000e-07	1.176752e-06	-4.978112e-09	8.572269e+00	-3.270052e+02
9.100000e-07	1.325835e-06	-4.875106e-09	9.658291e+00	-3.203868e+02
9.200000e-07	1.474467e-06	-4.760109e-09	1.074102e+01	-3.135854e+02
9.300000e-07	1.622505e-06	-4.650023e-09	1.181943e+01	-3.065732e+02
9.400000e-07	1.769850e-06	-4.549318e-09	1.289280e+01	-2.992974e+02
9.500000e-07	1.916614e-06	-4.441128e-09	1.396193e+01	-2.916858e+02
9.600000e-07	2.062785e-06	-4.315516e-09	1.502674e+01	-2.836560e+02
9.700000e-07	2.208205e-06	-4.176028e-09	1.608607e+01	-2.751242e+02
9.800000e-07	2.352842e-06	-4.032910e-09	1.713971e+01	-2.660095e+02
9.900000e-07	2.496671e-06	-3.887294e-09	1.818746e+01	-2.562315e+02
1.000000e-06	2.639548e-06	-3.729605e-09	1.922828e+01	-2.457000e+02
1.010000e-06	2.781423e-06	-3.552290e-09	2.026179e+01	-2.342980e+02
1.020000e-06	2.922276e-06	-3.355496e-09	2.128786e+01	-2.218641e+02
1.030000e-06	3.061931e-06	-3.142464e-09	2.230520e+01	-2.081782e+02
1.040000e-06	3.200399e-06	-2.913463e-09	2.331390e+01	-1.929583e+02
1.050000e-06	3.337722e-06	-2.658394e-09	2.431425e+01	-1.758733e+02
1.060000e-06	3.473763e-06	-2.363702e-09	2.530527e+01	-1.565731e+02
1.070000e-06	3.608471e-06	-2.024004e-09	2.628657e+01	-1.347337e+02
1.080000e-06	3.741932e-06	-1.644929e-09	2.725880e+01	-1.101122e+02
1.090000e-06	3.874014e-06	-1.229655e-09	2.822097e+01	-8.260087e+01
1.100000e-06	4.004633e-06	-7.740801e-10	2.917249e+01	-5.227177e+01
1.110000e-06	4.133907e-06	-2.734176e-10	3.011421e+01	-1.940028e+01
1.120000e-06	4.261722e-06	2.672187e-10	3.104530e+01	1.553742e+01
1.130000e-06	4.388010e-06	8.290384e-10	3.196527e+01	5.189519e+01
1.140000e-06	4.512779e-06	1.392311e-09	3.287417e+01	8.891246e+01
1.150000e-06	4.635901e-06	1.948002e-09	3.377107e+01	1.257860e+02
1.160000e-06	4.757419e-06	2.491307e-09	3.465630e+01	1.617464e+02
1.170000e-06	4.877287e-06	3.016112e-09	3.552950e+01	1.961275e+02
1.180000e-06	4.995326e-06	3.507872e-09	3.638937e+01	2.284171e+02
1.190000e-06	5.111422e-06	3.955873e-09	3.723510e+01	2.582835e+02
1.200000e-06	5.225509e-06	4.363585e-09	3.806618e+01	2.855751e+02
1.210000e-06	5.337612e-06	4.738392e-09	3.888282e+01	3.102963e+02
1.220000e-06	5.447782e-06	5.082689e-09	3.968537e+01	3.325674e+02
1.230000e-06	5.556055e-06	5.390345e-09	4.047411e+01	3.525782e+02
1.240000e-06	5.662348e-06	5.660612e-09	4.124842e+01	3.705433e+02
1.250000e-06	5.766586e-06	5.899761e-09	4.200776e+01	3.866688e+02
1.260000e-06	5.868776e-06	6.117292e-09	4.275218e+01	4.011329e+02
1.270000e-06	5.968865e-06	6.314700e-09	4.348130e+01	4.140808e+02
1.280000e-06	6.066786e-06	6.488931e-09	4.419462e+01	4.256320e+02
1.290000e-06	6.162482e-06	6.641625e-09	4.489174e+01	4.358928e+02
1.300000e-06	6.256007e-06	6.775237e-09	4.557304e+01	4.449698e+02
1.310000e-06	6.347391e-06	6.895247e-09	4.623874e+01	4.529793e+02
1.320000e-06	6.436493e-06	7.007471e-09	4.688782e+01	4.600486e+02
1.330000e-06	6.523320e-06	7.107067e-09	4.752033e+01	4.663111e+02
1.340000e-06	6.607939e-06	7.191932e-09	4.813676e+01	4.718964e+02
1.350000e-06	6.690282e-06	7.265238e-09	4.873659e+01	4.769188e+02
1.360000e-06	6.770189e-06	7.333445e-09	4.931869e+01	4.814679e+02
1.370000e-06	6.847578e-06	7.398498e-09	4.988245e+01	4.856051e+02
1.380000e-06	6.922384e-06	7.455727e-09	5.042738e+01	4.893652e+02
1.390000e-06	6.994583e-06	7.504739e-09	5.095333e+01	4.927646e+02
1.400000e-06	7.064289e-06	7.546237e-09	5.146112e+01	4.958111e+02
1.410000e-06	7.131517e-06	7.583437e-09	5.195086e+01	4.985150e+02
1.420000e-06	7.196145e-06	7.619374e-09	5.242164e+01	5.008961e+02
1.430000e-06	7.258271e-06	7.655152e-09	5.287421e+01	5.029869e+02
1.440000e-06	7.317973e-06	7.686446e-09	5.330912e+01	5.048300e+02
1.450000e-06	7.375068e-06	7.710674e-09	5.372504e+01	5.064725e+02
1.460000e-06	7.429417e-06	7.731073e-09	5.412096e+01	5.079575e+02
1.470000e-06	7.480815e-06	7.751598e-09	5.449538e+01	5.093180e+02
1.480000e-06	7.529177e-06	7.772444e-09	5.484768e+01	5.105723e+02
1.490000e-06	7.574809e-06	7.788812e-09	5.518009e+01	5.117250e+02
1.500000e-06	7.617825e-06	7.800314e-09	5.549346e+01	5.127703e+02
1.510000e-06	7.658059e-06	7.811551e-09	5.578654e+01	5.136991e+02
1.520000e-06	7.695624e-06	7.826391e-09	5.606020e+01	5.145051e+02
1.530000e-06	7.730568e-06	7.842136e-09	5.631475e+01	5.151905e+02
1.540000e-06	7.762772e-06	7.853316e-09	5.654935e+01	5.157670e+02
1.550000e-06	7.792339e-06	7.859865e-09	5.676473e+01	5.162548e+02
1.560000e-06	7.819138e-06	7.866024e-09	5.695995e+01	5.166773e+02
1.570000e-06	7.842989e-06	7.874040e-09	5.713370e+01	5.170553e+02
1.580000e-06	7.864122e-06	7.882315e-09	5.728765e+01	5.174022e+02
1.590000e-06	7.882622e-06	7.887371e-09	5.742241e+01	5.177205e+02
1.600000e-06	7.898267e-06	7.888587e-09	5.753639e+01	5.180024e+02
1.610000e-06	7.910924e-06	7.890211e-09	5.762859e+01	5.182331e+02
1.620000e-06	7.920490e-06	7.895415e-09	5.769827e+01	5.183961e+02
1.630000e-06	7.927180e-06	7.901936e-09	5.774700e+01	5.184791e+02
1.640000e-06	7.931205e-06	7.905401e-09	5.777633e+01	5.184784e+02
1.650000e-06	7.932363e-06	7.907704e-09	5.778476e+01	5.183998e+02
1.660000e-06	7.930741e-06	7.903364e-09	5.777295e+01	5.182578e+02
1.670000e-06	7.926564e-06	7.897941e-09	5.774252e+01	5.180712e+02
1.680000e-06	7.919707e-06	7.898244e-09	5.769257e+01	5.178577e+02
1.690000e-06	7.910243e-06	7.894439e-09	5.762363e+01	5.176288e+02
1.700000e-06	7.898110e-06	7.889136e-09	5.753524e+01	5.173873e+02
1.710000e-06	7.883145e-06	7.887669e-09	5.742623e+01	5.171266e+02
1.720000e-06	7.865694e-06	7.891039e-09	5.729910e+01	5.168334e+02
1.730000e-06	7.845947e-06	7.881386e-09	5.715525e+01	5.164929e+02
1.740000e-06	7.823343e-06	7.794391e-09	5.699059e+01	5.160934e+02
1.750000e-06	7.797259e-06	7.830769e-09	5.680057e+01	5.156305e+02
1.760000e-06	7.767654e-06	7.877546e-09	5.658491e+01	5.151093e+02
1.770000e-06	7.735148e-06	7.848798e-09	5.634811e+01	5.145428e+02
1.780000e-06	7.700410e-06	7.815214e-09	5.609506e+01	5.139490e+02
1.790000e-06	7.663424e-06	7.860156e-09	5.582562e+01	5.133455e+02
1.800000e-06	7.624193e-06	7.789635e-09	5.553985e+01	5.127447e+02
1.810000e-06	7.582682e-06	7.699209e-09	5.523744e+01	5.121507e+02
1.820000e-06	7.538646e-06	7.883218e-09	5.491666e+01	5.115585e+02
1.830000e-06	7.492002e-06	7.741705e-09	5.457688e+01	5.109555e+02
1.840000e-06	7.442466e-06	7.763161e-09	5.421602e+01	5.103255e+02
1.850000e-06	7.390018e-06	7.799262e-09	5.383395e+01	5.096538e+02
1.860000e-06	7.334741e-06	7.715004e-09	5.343128e+01	5.089306e+02
1.870000e-06	7.276724e-06	7.827892e-09	5.300864e+01	5.081541e+02
1.880000e-06	7.216295e-06	7.697709e-09	5.256843e+01	5.073295e+02
1.890000e-06	7.153136e-06	7.740087e-09	5.210834e+01	5.064670e+02
1.900000e-06	7.087171e-06	7.694591e-09	5.162781e+01	5.055779e+02
1.910000e-06	7.018575e-06	7.644596e-09	5.112811e+01	5.046701e+02
1.920000e-06	6.947277e-06	7.736920e-09	5.060872e+01	5.037455e+02
1.930000e-06	6.873452e-06	7.662273e-09	5.007093e+01	5.027990e+02
1.940000e-06	6.796962e-06	7.666507e-09	4.951372e+01	5.018198e+02
1.950000e-06	6.717769e-06	7.563953e-09	4.893683e+01	5.007948e+02
1.960000e-06	6.636164e-06	7.633208e-09	4.834236e+01	4.997129e+02
1.970000e-06	6.552298e-06	7.653069e-09	4.773142e+01	4.985685e+02
1.980000e-06	6.466028e-06	7.574121e-09	4.710297e+01	4.973634e+02
1.990000e-06	6.377360e-06	7.581978e-09	4.645706e+01	4.961068e+02
2.000000e-06	6.286557e-06	7.515156e-09	4.579558e+01	4.948126e+02
2.010000e-06	6.193525e-06	7.544052e-09	4.511788e+01	4.934957e+02
2.020000e-06	6.098182e-06	7.513619e-09	4.442333e+01	4.921676e+02
2.030000e-06	6.000677e-06	7.530178e-09	4.371304e+01	4.908334e+02
2.040000e-06	5.901085e-06	7.466615e-09	4.298754e+01	4.894903e+02
2.050000e-06	5.799313e-06	7.410169e-09	4.224616e+01	4.881286e+02
2.060000e-06	5.695415e-06	7.407564e-09	4.148930e+01	4.867344e+02
2.070000e-06	5.589592e-06	7.417960e-09	4.071841e+01	4.852936e+02
2.080000e-06	5.481838e-06	7.411885e-09	3.993346e+01	4.837954e+02
2.090000e-06	5.372140e-06	7.329174e-09	3.913434e+01	4.822347e+02
2.100000e-06	5.260457e-06	7.302714e-09	3.832077e+01	4.806126e+02
2.110000e-06	5.146765e-06	7.289958e-09	3.749256e+01	4.789345e+02
2.120000e-06	5.031027e-06	7.298996e-09	3.664944e+01	4.772075e+02
2.130000e-06	4.913319e-06	7.262539e-09	3.579198e+01	4.754369e+02
2.140000e-06	4.793694e-06	7.221542e-09	3.492055e+01	4.736241e+02
2.150000e-06	4.672262e-06	7.174414e-09	3.403596e+01	4.717653e+02
2.160000e-06	4.549088e-06	7.151267e-09	3.313867e+01	4.698529e+02
2.170000e-06	4.424263e-06	7.152134e-09	3.222936e+01	4.678780e+02
2.180000e-06	4.297997e-06	7.138890e-09	3.130955e+01	4.658333e+02
2.190000e-06	4.170143e-06	7.080888e-09	3.037818e+01	4.637163e+02
2.200000e-06	4.040780e-06	7.012784e-09	2.943581e+01	4.615300e+02
2.210000e-06	3.909952e-06	6.995991e-09	2.848277e+01	4.592827e+02
2.220000e-06	3.777676e-06	6.993953e-09	2.751918e+01	4.569854e+02
2.230000e-06	3.644186e-06	6.962191e-09	2.654675e+01	4.546479e+02
2.240000e-06	3.509561e-06	6.892904e-09	2.556604e+01	4.522756e+02
2.250000e-06	3.373601e-06	6.840304e-09	2.457562e+01	4.498676e+02
2.260000e-06	3.236314e-06	6.810479e-09	2.357553e+01	4.474157e+02
2.270000e-06	3.097737e-06	6.793073e-09	2.256604e+01	4.449070e+02
2.280000e-06	2.957955e-06	6.764812e-09	2.154777e+01	4.423272e+02
2.290000e-06	2.817132e-06	6.713592e-09	2.052192e+01	4.396649e+02
2.300000e-06	2.675333e-06	6.646776e-09	1.948896e+01	4.369146e+02
2.310000e-06	2.532582e-06	6.606500e-09	1.844906e+01	4.340782e+02
2.320000e-06	2.388813e-06	6.593827e-09	1.740175e+01	4.311638e+02
2.330000e-06	2.244087e-06	6.562819e-09	1.634747e+01	4.281826e+02
2.340000e-06	2.098646e-06	6.495696e-09	1.528798e+01	4.251442e+02
2.350000e-06	1.952605e-06	6.424879e-09	1.422411e+01	4.220524e+02
2.360000e-06	1.805800e-06	6.381542e-09	1.315469e+01	4.189023e+02
2.370000e-06	1.658183e-06	6.348566e-09	1.207934e+01	4.156805e+02
2.380000e-06	1.509922e-06	6.302213e-09	1.099931e+01	4.123673e+02
2.390000e-06	1.361257e-06	6.240224e-09	9.916325e+00	4.089419e+02
2.400000e-06	1.212196e-06	6.170385e-09	8.830466e+00	4.053871e+02
2.410000e-06	1.062705e-06	6.113032e-09	7.741468e+00	4.016935e+02
2.420000e-06	9.128632e-07	6.077022e-09	6.649921e+00	3.978612e+02
2.430000e-06	7.627834e-07	6.034084e-09	5.556637e+00	3.938977e+02
2.440000e-06	6.125185e-07	5.960322e-09	4.462004e+00	3.898135e+02
2.450000e-06	4.620780e-07	5.874233e-09	3.366093e+00	3.856157e+02
2.460000e-06	3.114851e-07	5.809273e-09	2.269071e+00	3.813021e+02
2.470000e-06	1.606811e-07	5.759165e-09	1.170511e+00	3.768578e+02
2.480000e-06	9.792132e-09	5.697559e-09	7.133259e-02	3.722555e+02
2.490000e-06	-1.408912e-07	5.616209e-09	-1.026348e+00	3.674597e+02
2.500000e-06	-2.914637e-07	5.525335e-09	-2.123221e+00	3.624341e+02
2.510000e-06	-4.420384e-07	5.441170e-09	-3.220110e+00	3.571503e+02
2.520000e-06	-5.924605e-07	5.368218e-09	-4.315888e+00	3.515944e+02
2.530000e-06	-7.426587e-07	5.291268e-09	-5.410035e+00	3.457705e+02
2.540000e-06	-8.926403e-07	5.191801e-09	-6.502603e+00	3.396986e+02
2.550000e-06	-1.042333e-06	5.076896e-09	-7.593069e+00	3.334071e+02
2.560000e-06	-1.191634e-06	4.975251e-09	-8.680678e+00	3.269228e+02
2.570000e-06	-1.340520e-06	4.891280e-09	-9.765264e+00	3.202594e+02
2.580000e-06	-1.488998e-06	4.799381e-09	-1.084688e+01	3.134085e+02
2.590000e-06	-1.636993e-06	4.683831e-09	-1.192498e+01	3.063358e+02
2.600000e-06	-1.784331e-06	4.554354e-09	-1.299829e+01	2.989829e+02
2.610000e-06	-1.930850e-06	4.430545e-09	-1.406563e+01	2.912742e+02
2.620000e-06	-2.076646e-06	4.316853e-09	-1.512771e+01	2.831263e+02
2.630000e-06	-2.221899e-06	4.197392e-09	-1.618583e+01	2.744558e+02
2.640000e-06	-2.366381e-06	4.056708e-09	-1.723834e+01	2.651825e+02
2.650000e-06	-2.509792e-06	3.895982e-09	-1.828304e+01	2.552249e+02
2.660000e-06	-2.652162e-06	3.731072e-09	-1.932017e+01	2.444877e+02
2.670000e-06	-2.793594e-06	3.566026e-09	-2.035045e+01	2.328446e+02
2.680000e-06	-2.934076e-06	3.382403e-09	-2.137382e+01	2.201204e+02
2.690000e-06	-3.073455e-06	3.163565e-09	-2.238915e+01	2.060792e+02
2.700000e-06	-3.211638e-06	2.911334e-09	-2.339577e+01	1.904250e+02
2.710000e-06	-3.348635e-06	2.637439e-09	-2.439375e+01	1.728185e+02
2.720000e-06	-3.484332e-06	2.341089e-09	-2.538226e+01	1.529112e+02
2.730000e-06	-3.618703e-06	2.007927e-09	-2.636111e+01	1.303943e+02
2.740000e-06	-3.751837e-06	1.623406e-09	-2.733095e+01	1.050535e+02
2.750000e-06	-3.883683e-06	1.187208e-09	-2.829141e+01	7.682285e+01
2.760000e-06	-4.014135e-06	7.123582e-10	-2.924171e+01	4.582380e+01
2.770000e-06	-4.143203e-06	2.099622e-10	-3.018193e+01	1.238330e+01
2.780000e-06	-4.270773e-06	-3.217587e-10	-3.111124e+01	-2.297601e+01
2.790000e-06	-4.396812e-06	-8.840687e-10	-3.202939e+01	-5.957337e+01
2.800000e-06	-4.521378e-06	-1.461746e-09	-3.293681e+01	-9.663042e+01
2.810000e-06	-4.644265e-06	-2.029456e-09	-3.383201e+01	-1.333453e+02
2.820000e-06	-4.765443e-06	-2.570931e-09	-3.471475e+01	-1.689684e+02
2.830000e-06	-4.884836e-06	-3.081496e-09	-3.558449e+01	-2.028683e+02
2.840000e-06	-5.002280e-06	-3.562372e-09	-3.644003e+01	-2.345764e+02
2.850000e-06	-5.117743e-06	-4.015332e-09	-3.728115e+01	-2.638071e+02
2.860000e-06	-5.231089e-06	-4.430797e-09	-3.810683e+01	-2.904508e+02
2.870000e-06	-5.342354e-06	-4.799812e-09	-3.891736e+01	-3.145451e+02
2.880000e-06	-5.451658e-06	-5.127714e-09	-3.971361e+01	-3.362321e+02
2.890000e-06	-5.559138e-06	-5.427351e-09	-4.049657e+01	-3.557117e+02
2.900000e-06	-5.664861e-06	-5.702151e-09	-4.126673e+01	-3.731989e+02
2.910000e-06	-5.768567e-06	-5.949277e-09	-4.202219e+01	-3.888941e+02
2.920000e-06	-5.870065e-06	-6.164592e-09	-4.276157e+01	-4.029671e+02
2.930000e-06	-5.969389e-06	-6.350895e-09	-4.348512e+01	-4.155559e+02
2.940000e-06	-6.066657e-06	-6.519259e-09	-4.419368e+01	-4.267751e+02
