# Temperatura_=_20.0
# Concentracion g/m^3_=_8460.0
# C_Vs_to_Am_M_A/Vsm_=_65563218390.804596
# pendiente_HvsI_1/m_=_3716.3
# ordenada_HvsI_A/m_=_1297.0
# frecuencia_Hz_=_301626.46127736976

Tiempo_(s)	Campo_(V.s)	Magnetizacion_(V.s)	Campo_(kA/m)	Magnetizacion_(A/m)
0.000000e+00	-7.870960e-06	-8.973103e-09	-5.758619e+01	-5.879505e+02
1.000000e-08	-7.867503e-06	-8.973600e-09	-5.756089e+01	-5.878172e+02
2.000000e-08	-7.861469e-06	-8.971403e-09	-5.751674e+01	-5.876511e+02
3.000000e-08	-7.852855e-06	-8.968387e-09	-5.745372e+01	-5.874625e+02
4.000000e-08	-7.841448e-06	-8.965519e-09	-5.737027e+01	-5.872563e+02
5.000000e-08	-7.827134e-06	-8.962577e-09	-5.726554e+01	-5.870308e+02
6.000000e-08	-7.810069e-06	-8.958711e-09	-5.714069e+01	-5.867796e+02
7.000000e-08	-7.790648e-06	-8.958345e-09	-5.699860e+01	-5.864947e+02
8.000000e-08	-7.768774e-06	-8.951833e-09	-5.683857e+01	-5.861701e+02
9.000000e-08	-7.743932e-06	-8.963203e-09	-5.665681e+01	-5.858051e+02
1.000000e-07	-7.715976e-06	-8.962134e-09	-5.645228e+01	-5.854055e+02
1.100000e-07	-7.685161e-06	-8.939012e-09	-5.622683e+01	-5.849822e+02
1.200000e-07	-7.651600e-06	-8.923491e-09	-5.598128e+01	-5.845483e+02
1.300000e-07	-7.615476e-06	-8.920552e-09	-5.571699e+01	-5.841147e+02
1.400000e-07	-7.577306e-06	-8.919916e-09	-5.543773e+01	-5.836864e+02
1.500000e-07	-7.536939e-06	-8.889597e-09	-5.514239e+01	-5.832594e+02
1.600000e-07	-7.493790e-06	-8.904157e-09	-5.482670e+01	-5.828211e+02
1.700000e-07	-7.447970e-06	-8.900818e-09	-5.449147e+01	-5.823527e+02
1.800000e-07	-7.399474e-06	-8.858407e-09	-5.413666e+01	-5.818335e+02
1.900000e-07	-7.347898e-06	-8.877781e-09	-5.375931e+01	-5.812463e+02
2.000000e-07	-7.293411e-06	-8.856360e-09	-5.336067e+01	-5.805817e+02
2.100000e-07	-7.236228e-06	-8.839634e-09	-5.294230e+01	-5.798404e+02
2.200000e-07	-7.176462e-06	-8.827430e-09	-5.250504e+01	-5.790330e+02
2.300000e-07	-7.114199e-06	-8.805937e-09	-5.204950e+01	-5.781767e+02
2.400000e-07	-7.049228e-06	-8.819158e-09	-5.157416e+01	-5.772908e+02
2.500000e-07	-6.981663e-06	-8.788459e-09	-5.107983e+01	-5.763907e+02
2.600000e-07	-6.911655e-06	-8.778867e-09	-5.056764e+01	-5.754845e+02
2.700000e-07	-6.838961e-06	-8.767954e-09	-5.003579e+01	-5.745705e+02
2.800000e-07	-6.763578e-06	-8.757481e-09	-4.948426e+01	-5.736380e+02
2.900000e-07	-6.685547e-06	-8.733354e-09	-4.891337e+01	-5.726710e+02
3.000000e-07	-6.604794e-06	-8.714738e-09	-4.832255e+01	-5.716527e+02
3.100000e-07	-6.521714e-06	-8.714713e-09	-4.771471e+01	-5.705702e+02
3.200000e-07	-6.436601e-06	-8.674376e-09	-4.709201e+01	-5.694185e+02
3.300000e-07	-6.349351e-06	-8.661268e-09	-4.645366e+01	-5.682011e+02
3.400000e-07	-6.259778e-06	-8.650595e-09	-4.579832e+01	-5.669292e+02
3.500000e-07	-6.167921e-06	-8.629867e-09	-4.512627e+01	-5.656183e+02
3.600000e-07	-6.073979e-06	-8.601728e-09	-4.443896e+01	-5.642835e+02
3.700000e-07	-5.977816e-06	-8.584327e-09	-4.373540e+01	-5.629354e+02
3.800000e-07	-5.879312e-06	-8.571967e-09	-4.301472e+01	-5.615778e+02
3.900000e-07	-5.778733e-06	-8.547167e-09	-4.227886e+01	-5.602067e+02
4.000000e-07	-5.676243e-06	-8.528444e-09	-4.152901e+01	-5.588122e+02
4.100000e-07	-5.571704e-06	-8.503176e-09	-4.076417e+01	-5.573813e+02
4.200000e-07	-5.465042e-06	-8.480614e-09	-3.998380e+01	-5.559017e+02
4.300000e-07	-5.356393e-06	-8.451606e-09	-3.918890e+01	-5.543646e+02
4.400000e-07	-5.245861e-06	-8.432037e-09	-3.838022e+01	-5.527660e+02
4.500000e-07	-5.133356e-06	-8.411852e-09	-3.755709e+01	-5.511066e+02
4.600000e-07	-5.018768e-06	-8.384152e-09	-3.671873e+01	-5.493903e+02
4.700000e-07	-4.902175e-06	-8.352491e-09	-3.586571e+01	-5.476215e+02
4.800000e-07	-4.783772e-06	-8.328737e-09	-3.499944e+01	-5.458033e+02
4.900000e-07	-4.663658e-06	-8.306700e-09	-3.412065e+01	-5.439364e+02
5.000000e-07	-4.541760e-06	-8.274540e-09	-3.322881e+01	-5.420195e+02
5.100000e-07	-4.418171e-06	-8.242078e-09	-3.232460e+01	-5.400509e+02
5.200000e-07	-4.293099e-06	-8.207816e-09	-3.140954e+01	-5.380304e+02
5.300000e-07	-4.166497e-06	-8.174995e-09	-3.048328e+01	-5.359608e+02
5.400000e-07	-4.038474e-06	-8.143089e-09	-2.954662e+01	-5.338485e+02
5.500000e-07	-3.908984e-06	-8.115771e-09	-2.859924e+01	-5.317016e+02
5.600000e-07	-3.777901e-06	-8.083544e-09	-2.764020e+01	-5.295277e+02
5.700000e-07	-3.645454e-06	-8.048006e-09	-2.667118e+01	-5.273301e+02
5.800000e-07	-3.511758e-06	-8.014210e-09	-2.569302e+01	-5.251052e+02
5.900000e-07	-3.376871e-06	-7.983757e-09	-2.470615e+01	-5.228410e+02
6.000000e-07	-3.240843e-06	-7.949599e-09	-2.371093e+01	-5.205183e+02
6.100000e-07	-3.103650e-06	-7.907839e-09	-2.270719e+01	-5.181142e+02
6.200000e-07	-2.965091e-06	-7.866061e-09	-2.169345e+01	-5.156072e+02
6.300000e-07	-2.825151e-06	-7.826625e-09	-2.066961e+01	-5.129824e+02
6.400000e-07	-2.684108e-06	-7.786615e-09	-1.963770e+01	-5.102355e+02
6.500000e-07	-2.542084e-06	-7.741392e-09	-1.859861e+01	-5.073740e+02
6.600000e-07	-2.399075e-06	-7.696641e-09	-1.755231e+01	-5.044157e+02
6.700000e-07	-2.255050e-06	-7.651233e-09	-1.649859e+01	-5.013834e+02
6.800000e-07	-2.110098e-06	-7.606548e-09	-1.543808e+01	-4.982983e+02
6.900000e-07	-1.964339e-06	-7.561346e-09	-1.437166e+01	-4.951739e+02
7.000000e-07	-1.817943e-06	-7.514334e-09	-1.330059e+01	-4.920111e+02
7.100000e-07	-1.671025e-06	-7.462312e-09	-1.222569e+01	-4.887971e+02
7.200000e-07	-1.523598e-06	-7.405246e-09	-1.114708e+01	-4.855084e+02
7.300000e-07	-1.375698e-06	-7.353078e-09	-1.006500e+01	-4.821164e+02
7.400000e-07	-1.227357e-06	-7.303644e-09	-8.979693e+00	-4.785944e+02
7.500000e-07	-1.078643e-06	-7.250538e-09	-7.891663e+00	-4.749247e+02
7.600000e-07	-9.295313e-07	-7.190965e-09	-6.800716e+00	-4.711016e+02
7.700000e-07	-7.800315e-07	-7.129518e-09	-5.706932e+00	-4.671317e+02
7.800000e-07	-6.302899e-07	-7.068571e-09	-4.611380e+00	-4.630287e+02
7.900000e-07	-4.804288e-07	-7.003477e-09	-3.514954e+00	-4.588064e+02
8.000000e-07	-3.304459e-07	-6.935204e-09	-2.417636e+00	-4.544704e+02
8.100000e-07	-1.803508e-07	-6.864435e-09	-1.319497e+00	-4.500120e+02
8.200000e-07	-3.017484e-08	-6.789426e-09	-2.207677e-01	-4.454060e+02
8.300000e-07	1.200204e-07	-6.713706e-09	8.781032e-01	-4.406137e+02
8.400000e-07	2.701374e-07	-6.640257e-09	1.976402e+00	-4.355901e+02
8.500000e-07	4.201564e-07	-6.562602e-09	3.073983e+00	-4.302946e+02
8.600000e-07	5.700062e-07	-6.477114e-09	4.170328e+00	-4.247002e+02
8.700000e-07	7.196771e-07	-6.387139e-09	5.265362e+00	-4.188004e+02
8.800000e-07	8.691456e-07	-6.296508e-09	6.358916e+00	-4.126095e+02
8.900000e-07	1.018322e-06	-6.201390e-09	7.450335e+00	-4.061574e+02
9.000000e-07	1.167163e-06	-6.096413e-09	8.539296e+00	-3.994785e+02
9.100000e-07	1.315593e-06	-5.985941e-09	9.625250e+00	-3.925986e+02
9.200000e-07	1.463574e-06	-5.873361e-09	1.070792e+01	-3.855218e+02
9.300000e-07	1.611061e-06	-5.760298e-09	1.178698e+01	-3.782233e+02
9.400000e-07	1.757978e-06	-5.645895e-09	1.286187e+01	-3.706481e+02
9.500000e-07	1.904327e-06	-5.527369e-09	1.393260e+01	-3.627158e+02
9.600000e-07	2.050043e-06	-5.400101e-09	1.499870e+01	-3.543310e+02
9.700000e-07	2.194886e-06	-5.261999e-09	1.605841e+01	-3.453940e+02
9.800000e-07	2.338826e-06	-5.115058e-09	1.711152e+01	-3.358072e+02
9.900000e-07	2.482001e-06	-4.957035e-09	1.815903e+01	-3.254739e+02
1.000000e-06	2.624292e-06	-4.781846e-09	1.920007e+01	-3.142879e+02
1.010000e-06	2.765610e-06	-4.588125e-09	2.023399e+01	-3.021146e+02
1.020000e-06	2.905896e-06	-4.378766e-09	2.126036e+01	-2.887681e+02
1.030000e-06	3.045039e-06	-4.149196e-09	2.227838e+01	-2.739925e+02
1.040000e-06	3.182995e-06	-3.894781e-09	2.328770e+01	-2.574527e+02
1.050000e-06	3.319646e-06	-3.607551e-09	2.428748e+01	-2.387438e+02
1.060000e-06	3.455014e-06	-3.279919e-09	2.527786e+01	-2.174213e+02
1.070000e-06	3.589171e-06	-2.905750e-09	2.625939e+01	-1.930508e+02
1.080000e-06	3.722104e-06	-2.481374e-09	2.723197e+01	-1.652724e+02
1.090000e-06	3.853734e-06	-2.003646e-09	2.819501e+01	-1.338691e+02
1.100000e-06	3.983912e-06	-1.467023e-09	2.914744e+01	-9.882740e+01
1.110000e-06	4.112543e-06	-8.752075e-10	3.008853e+01	-6.037756e+01
1.120000e-06	4.239702e-06	-2.364656e-10	3.101886e+01	-1.900423e+01
1.130000e-06	4.365503e-06	4.321726e-10	3.193926e+01	2.457643e+01
1.140000e-06	4.489872e-06	1.117004e-09	3.284918e+01	6.947205e+01
1.150000e-06	4.612678e-06	1.803391e-09	3.374767e+01	1.146937e+02
1.160000e-06	4.733713e-06	2.476855e-09	3.463319e+01	1.592477e+02
1.170000e-06	4.852996e-06	3.127150e-09	3.550590e+01	2.022259e+02
1.180000e-06	4.970578e-06	3.740625e-09	3.636616e+01	2.428791e+02
1.190000e-06	5.086256e-06	4.309018e-09	3.721250e+01	2.806663e+02
1.200000e-06	5.199814e-06	4.830707e-09	3.804332e+01	3.152709e+02
1.210000e-06	5.311352e-06	5.305312e-09	3.885936e+01	3.465882e+02
1.220000e-06	5.421151e-06	5.731753e-09	3.966269e+01	3.746882e+02
1.230000e-06	5.529200e-06	6.112390e-09	4.045320e+01	3.997638e+02
1.240000e-06	5.635242e-06	6.451824e-09	4.122904e+01	4.220756e+02
1.250000e-06	5.739121e-06	6.752444e-09	4.198904e+01	4.419040e+02
1.260000e-06	5.840909e-06	7.017947e-09	4.273375e+01	4.595139e+02
1.270000e-06	5.940625e-06	7.252810e-09	4.346331e+01	4.751363e+02
1.280000e-06	6.038126e-06	7.457830e-09	4.417665e+01	4.889655e+02
1.290000e-06	6.133452e-06	7.637377e-09	4.487408e+01	5.011668e+02
1.300000e-06	6.226705e-06	7.798574e-09	4.555635e+01	5.118893e+02
1.310000e-06	6.317742e-06	7.942752e-09	4.622240e+01	5.212787e+02
1.320000e-06	6.406451e-06	8.068692e-09	4.687142e+01	5.294840e+02
1.330000e-06	6.492944e-06	8.177943e-09	4.750423e+01	5.366583e+02
1.340000e-06	6.577295e-06	8.274269e-09	4.812136e+01	5.429527e+02
1.350000e-06	6.659271e-06	8.360316e-09	4.872112e+01	5.485078e+02
1.360000e-06	6.738820e-06	8.434933e-09	4.930313e+01	5.534436e+02
1.370000e-06	6.815976e-06	8.499931e-09	4.986762e+01	5.578534e+02
1.380000e-06	6.890534e-06	8.558496e-09	5.041311e+01	5.618030e+02
1.390000e-06	6.962487e-06	8.611243e-09	5.093954e+01	5.653346e+02
1.400000e-06	7.031992e-06	8.655859e-09	5.144806e+01	5.684749e+02
1.410000e-06	7.099011e-06	8.694670e-09	5.193838e+01	5.712448e+02
1.420000e-06	7.163465e-06	8.731999e-09	5.240995e+01	5.736677e+02
1.430000e-06	7.225438e-06	8.765379e-09	5.286336e+01	5.757745e+02
1.440000e-06	7.284995e-06	8.792360e-09	5.329910e+01	5.776047e+02
1.450000e-06	7.341945e-06	8.815318e-09	5.371576e+01	5.792027e+02
1.460000e-06	7.396170e-06	8.837184e-09	5.411249e+01	5.806121e+02
1.470000e-06	7.447474e-06	8.856031e-09	5.448784e+01	5.818701e+02
1.480000e-06	7.495715e-06	8.871661e-09	5.484078e+01	5.830029e+02
1.490000e-06	7.541227e-06	8.886309e-09	5.517376e+01	5.840247e+02
1.500000e-06	7.584138e-06	8.899871e-09	5.548771e+01	5.849396e+02
1.510000e-06	7.624277e-06	8.911797e-09	5.578138e+01	5.857462e+02
1.520000e-06	7.661714e-06	8.922072e-09	5.605528e+01	5.864432e+02
1.530000e-06	7.696501e-06	8.931340e-09	5.630979e+01	5.870340e+02
1.540000e-06	7.728566e-06	8.939853e-09	5.654439e+01	5.875287e+02
1.550000e-06	7.757971e-06	8.946832e-09	5.675952e+01	5.879441e+02
1.560000e-06	7.784657e-06	8.952726e-09	5.695477e+01	5.883000e+02
1.570000e-06	7.808482e-06	8.958997e-09	5.712908e+01	5.886154e+02
1.580000e-06	7.829589e-06	8.964789e-09	5.728350e+01	5.889032e+02
1.590000e-06	7.848095e-06	8.969718e-09	5.741889e+01	5.891682e+02
1.600000e-06	7.863789e-06	8.974530e-09	5.753372e+01	5.894063e+02
1.610000e-06	7.876503e-06	8.978854e-09	5.762674e+01	5.896067e+02
1.620000e-06	7.886137e-06	8.982148e-09	5.769722e+01	5.897563e+02
1.630000e-06	7.892839e-06	8.984268e-09	5.774626e+01	5.898440e+02
1.640000e-06	7.896874e-06	8.986081e-09	5.777578e+01	5.898646e+02
1.650000e-06	7.898102e-06	8.987031e-09	5.778476e+01	5.898202e+02
1.660000e-06	7.896592e-06	8.987950e-09	5.777371e+01	5.897201e+02
1.670000e-06	7.892570e-06	8.984334e-09	5.774429e+01	5.895771e+02
1.680000e-06	7.885888e-06	8.982214e-09	5.769540e+01	5.894042e+02
1.690000e-06	7.876581e-06	8.980541e-09	5.762731e+01	5.892107e+02
1.700000e-06	7.864689e-06	8.978443e-09	5.754030e+01	5.889998e+02
1.710000e-06	7.850018e-06	8.974488e-09	5.743297e+01	5.887683e+02
1.720000e-06	7.832751e-06	8.965940e-09	5.730664e+01	5.885091e+02
1.730000e-06	7.813141e-06	8.964684e-09	5.716316e+01	5.882143e+02
1.740000e-06	7.790741e-06	8.940138e-09	5.699928e+01	5.878792e+02
1.750000e-06	7.764823e-06	8.920658e-09	5.680965e+01	5.875045e+02
1.760000e-06	7.735341e-06	8.937291e-09	5.659396e+01	5.870974e+02
1.770000e-06	7.703034e-06	8.942561e-09	5.635759e+01	5.866699e+02
1.780000e-06	7.668495e-06	8.925228e-09	5.610489e+01	5.862350e+02
1.790000e-06	7.631816e-06	8.925131e-09	5.583654e+01	5.858023e+02
1.800000e-06	7.592942e-06	8.938531e-09	5.555212e+01	5.853747e+02
1.810000e-06	7.551678e-06	8.881930e-09	5.525022e+01	5.849460e+02
1.820000e-06	7.507921e-06	8.907952e-09	5.493009e+01	5.845018e+02
1.830000e-06	7.461576e-06	8.908601e-09	5.459102e+01	5.840223e+02
1.840000e-06	7.412397e-06	8.876613e-09	5.423120e+01	5.834872e+02
1.850000e-06	7.360408e-06	8.908390e-09	5.385084e+01	5.828808e+02
1.860000e-06	7.305511e-06	8.859834e-09	5.344920e+01	5.821963e+02
1.870000e-06	7.247813e-06	8.886397e-09	5.302707e+01	5.814368e+02
1.880000e-06	7.187645e-06	8.862023e-09	5.258685e+01	5.806151e+02
1.890000e-06	7.124678e-06	8.830009e-09	5.212617e+01	5.797494e+02
1.900000e-06	7.058951e-06	8.844708e-09	5.164529e+01	5.788584e+02
1.910000e-06	6.990706e-06	8.799877e-09	5.114599e+01	5.779561e+02
1.920000e-06	6.919835e-06	8.806186e-09	5.062748e+01	5.770482e+02
1.930000e-06	6.846390e-06	8.775401e-09	5.009014e+01	5.761305e+02
1.940000e-06	6.770290e-06	8.780465e-09	4.953337e+01	5.751907e+02
1.950000e-06	6.691510e-06	8.749452e-09	4.895699e+01	5.742121e+02
1.960000e-06	6.610255e-06	8.719890e-09	4.836250e+01	5.731783e+02
1.970000e-06	6.526723e-06	8.741181e-09	4.775136e+01	5.720784e+02
1.980000e-06	6.440841e-06	8.702524e-09	4.712302e+01	5.709092e+02
1.990000e-06	6.352592e-06	8.697037e-09	4.647737e+01	5.696766e+02
2.000000e-06	6.262204e-06	8.661853e-09	4.581607e+01	5.683932e+02
2.010000e-06	6.169634e-06	8.653831e-09	4.513880e+01	5.670747e+02
2.020000e-06	6.074815e-06	8.626641e-09	4.444507e+01	5.657355e+02
2.030000e-06	5.977809e-06	8.607239e-09	4.373535e+01	5.643847e+02
2.040000e-06	5.878743e-06	8.594611e-09	4.301055e+01	5.630241e+02
2.050000e-06	5.777554e-06	8.561148e-09	4.227023e+01	5.616479e+02
2.060000e-06	5.674193e-06	8.538303e-09	4.151401e+01	5.602452e+02
2.070000e-06	5.568824e-06	8.510993e-09	4.074310e+01	5.588029e+02
2.080000e-06	5.461569e-06	8.507513e-09	3.995839e+01	5.573093e+02
2.090000e-06	5.352382e-06	8.474657e-09	3.915955e+01	5.557566e+02
2.100000e-06	5.241183e-06	8.447649e-09	3.834599e+01	5.541423e+02
2.110000e-06	5.128023e-06	8.419489e-09	3.751808e+01	5.524680e+02
2.120000e-06	5.012932e-06	8.398222e-09	3.667604e+01	5.507379e+02
2.130000e-06	4.895914e-06	8.368787e-09	3.581990e+01	5.489562e+02
2.140000e-06	4.776892e-06	8.339096e-09	3.494910e+01	5.471255e+02
2.150000e-06	4.655983e-06	8.309393e-09	3.406450e+01	5.452460e+02
2.160000e-06	4.533388e-06	8.275556e-09	3.316756e+01	5.433160e+02
2.170000e-06	4.409293e-06	8.247060e-09	3.225964e+01	5.413340e+02
2.180000e-06	4.283658e-06	8.219702e-09	3.134046e+01	5.393005e+02
2.190000e-06	4.156360e-06	8.194085e-09	3.040911e+01	5.372192e+02
2.200000e-06	4.027562e-06	8.156951e-09	2.946679e+01	5.350971e+02
2.210000e-06	3.897391e-06	8.121964e-09	2.851442e+01	5.329426e+02
2.220000e-06	3.765850e-06	8.088288e-09	2.755203e+01	5.307624e+02
2.230000e-06	3.632993e-06	8.058002e-09	2.658001e+01	5.285584e+02
2.240000e-06	3.498875e-06	8.020725e-09	2.559877e+01	5.263247e+02
2.250000e-06	3.363454e-06	7.984031e-09	2.460799e+01	5.240476e+02
2.260000e-06	3.226793e-06	7.948238e-09	2.360814e+01	5.217065e+02
2.270000e-06	3.088934e-06	7.912786e-09	2.259952e+01	5.192782e+02
2.280000e-06	2.949970e-06	7.875228e-09	2.158282e+01	5.167425e+02
2.290000e-06	2.809915e-06	7.835375e-09	2.055814e+01	5.140868e+02
2.300000e-06	2.668750e-06	7.792200e-09	1.952534e+01	5.113097e+02
2.310000e-06	2.526493e-06	7.746548e-09	1.848454e+01	5.084218e+02
2.320000e-06	2.383206e-06	7.703543e-09	1.743621e+01	5.054425e+02
2.330000e-06	2.239003e-06	7.659695e-09	1.638119e+01	5.023948e+02
2.340000e-06	2.094035e-06	7.613419e-09	1.532055e+01	4.992988e+02
2.350000e-06	1.948458e-06	7.563656e-09	1.425547e+01	4.961649e+02
2.360000e-06	1.802229e-06	7.515358e-09	1.318562e+01	4.929907e+02
2.370000e-06	1.655316e-06	7.469065e-09	1.211076e+01	4.897603e+02
2.380000e-06	1.507887e-06	7.418902e-09	1.103213e+01	4.864482e+02
2.390000e-06	1.360084e-06	7.363289e-09	9.950761e+00	4.830256e+02
2.400000e-06	1.211829e-06	7.306461e-09	8.866082e+00	4.794676e+02
2.410000e-06	1.063094e-06	7.248970e-09	7.777899e+00	4.757593e+02
2.420000e-06	9.139258e-07	7.189936e-09	6.686542e+00	4.718982e+02
2.430000e-06	7.643954e-07	7.131809e-09	5.592534e+00	4.678933e+02
2.440000e-06	6.146568e-07	7.073304e-09	4.497004e+00	4.637591e+02
2.450000e-06	4.647952e-07	7.008571e-09	3.400574e+00	4.595080e+02
2.460000e-06	3.147500e-07	6.941840e-09	2.302800e+00	4.551425e+02
2.470000e-06	1.644607e-07	6.876353e-09	1.203241e+00	4.506499e+02
2.480000e-06	1.407662e-08	6.808643e-09	1.029885e-01	4.460010e+02
2.490000e-06	-1.361878e-07	6.733972e-09	-9.963884e-01	4.411548e+02
2.500000e-06	-2.863714e-07	6.652188e-09	-2.095175e+00	4.360663e+02
2.510000e-06	-4.364865e-07	6.566645e-09	-3.193459e+00	4.306976e+02
2.520000e-06	-5.864838e-07	6.477377e-09	-4.290882e+00	4.250263e+02
2.530000e-06	-7.362138e-07	6.388086e-09	-5.386350e+00	4.190513e+02
2.540000e-06	-8.855374e-07	6.296695e-09	-6.478844e+00	4.127916e+02
2.550000e-06	-1.034474e-06	6.199463e-09	-7.568503e+00	4.062794e+02
2.560000e-06	-1.182987e-06	6.096158e-09	-8.655072e+00	3.995482e+02
2.570000e-06	-1.331137e-06	5.990461e-09	-9.738979e+00	3.926194e+02
2.580000e-06	-1.478875e-06	5.884569e-09	-1.081987e+01	3.854904e+02
2.590000e-06	-1.626092e-06	5.772530e-09	-1.189695e+01	3.781288e+02
2.600000e-06	-1.772805e-06	5.650214e-09	-1.297035e+01	3.704722e+02
2.610000e-06	-1.918945e-06	5.524276e-09	-1.403955e+01	3.624358e+02
2.620000e-06	-2.064425e-06	5.399513e-09	-1.510392e+01	3.539220e+02
2.630000e-06	-2.209137e-06	5.268446e-09	-1.616267e+01	3.448312e+02
2.640000e-06	-2.352949e-06	5.123677e-09	-1.721485e+01	3.350666e+02
2.650000e-06	-2.495852e-06	4.963272e-09	-1.826037e+01	3.245306e+02
2.660000e-06	-2.637737e-06	4.791481e-09	-1.929843e+01	3.131117e+02
2.670000e-06	-2.778436e-06	4.607891e-09	-2.032783e+01	3.006647e+02
2.680000e-06	-2.918063e-06	4.405129e-09	-2.134938e+01	2.869877e+02
2.690000e-06	-3.056698e-06	4.174991e-09	-2.236368e+01	2.718051e+02
2.700000e-06	-3.194283e-06	3.911109e-09	-2.337028e+01	2.547629e+02
2.710000e-06	-3.330693e-06	3.613437e-09	-2.436830e+01	2.354426e+02
2.720000e-06	-3.465897e-06	3.280970e-09	-2.535749e+01	2.133968e+02
2.730000e-06	-3.599816e-06	2.905055e-09	-2.633728e+01	1.882033e+02
2.740000e-06	-3.732337e-06	2.474837e-09	-2.730684e+01	1.595317e+02
2.750000e-06	-3.863594e-06	1.986918e-09	-2.826716e+01	1.272107e+02
2.760000e-06	-3.993585e-06	1.442429e-09	-2.921820e+01	9.128508e+01
2.770000e-06	-4.122193e-06	8.477866e-10	-3.015914e+01	5.204892e+01
2.780000e-06	-4.249273e-06	2.109627e-10	-3.108889e+01	1.004827e+01
2.790000e-06	-4.374744e-06	-4.617411e-10	-3.200687e+01	-3.395038e+01
2.800000e-06	-4.498745e-06	-1.156293e-09	-3.291410e+01	-7.902232e+01
2.810000e-06	-4.621245e-06	-1.852354e-09	-3.381034e+01	-1.241686e+02
2.820000e-06	-4.741994e-06	-2.528714e-09	-3.469378e+01	-1.684091e+02
2.830000e-06	-4.860839e-06	-3.174577e-09	-3.556328e+01	-2.108690e+02
2.840000e-06	-4.977719e-06	-3.787639e-09	-3.641841e+01	-2.508480e+02
2.850000e-06	-5.092599e-06	-4.360802e-09	-3.725890e+01	-2.878608e+02
2.860000e-06	-5.205410e-06	-4.884103e-09	-3.808426e+01	-3.216461e+02
2.870000e-06	-5.316193e-06	-5.352228e-09	-3.889478e+01	-3.521471e+02
2.880000e-06	-5.425153e-06	-5.769411e-09	-3.969197e+01	-3.794697e+02
2.890000e-06	-5.532364e-06	-6.144813e-09	-4.047635e+01	-4.038286e+02
2.900000e-06	-5.637659e-06	-6.481582e-09	-4.124672e+01	-4.254938e+02
2.910000e-06	-5.740855e-06	-6.780435e-09	-4.200173e+01	-4.447441e+02
2.920000e-06	-5.841888e-06	-7.043132e-09	-4.274091e+01	-4.618373e+02
2.930000e-06	-5.940869e-06	-7.274187e-09	-4.346509e+01	-4.769948e+02
2.940000e-06	-6.037871e-06	-7.479949e-09	-4.417479e+01	-4.904027e+02
