# Temperatura_=_20.0
# Concentracion g/m^3_=_8460.0
# C_Vs_to_Am_M_A/Vsm_=_65563218390.804596
# pendiente_HvsI_1/m_=_3716.3
# ordenada_HvsI_A/m_=_1297.0
# frecuencia_Hz_=_301624.19168254075

Tiempo_(s)	Campo_(V.s)	Magnetizacion_(V.s)	Campo_(kA/m)	Magnetizacion_(A/m)
0.000000e+00	-7.936450e-06	-8.850664e-09	-5.758078e+01	-5.795162e+02
1.000000e-08	-7.932567e-06	-8.848000e-09	-5.755261e+01	-5.793798e+02
2.000000e-08	-7.926176e-06	-8.846037e-09	-5.750625e+01	-5.792037e+02
3.000000e-08	-7.917162e-06	-8.846083e-09	-5.744085e+01	-5.789971e+02
4.000000e-08	-7.905290e-06	-8.842442e-09	-5.735471e+01	-5.787657e+02
5.000000e-08	-7.890429e-06	-8.835278e-09	-5.724689e+01	-5.785113e+02
6.000000e-08	-7.872834e-06	-8.828044e-09	-5.711924e+01	-5.782321e+02
7.000000e-08	-7.852976e-06	-8.828769e-09	-5.697516e+01	-5.779243e+02
8.000000e-08	-7.830656e-06	-8.869679e-09	-5.681323e+01	-5.775846e+02
9.000000e-08	-7.805231e-06	-8.863989e-09	-5.662876e+01	-5.772119e+02
1.000000e-07	-7.776635e-06	-8.817853e-09	-5.642129e+01	-5.768083e+02
1.100000e-07	-7.745220e-06	-8.803860e-09	-5.619337e+01	-5.763782e+02
1.200000e-07	-7.710988e-06	-8.802213e-09	-5.594501e+01	-5.759268e+02
1.300000e-07	-7.674246e-06	-8.791492e-09	-5.567844e+01	-5.754574e+02
1.400000e-07	-7.635510e-06	-8.763605e-09	-5.539740e+01	-5.749696e+02
1.500000e-07	-7.594462e-06	-8.800320e-09	-5.509958e+01	-5.744576e+02
1.600000e-07	-7.550574e-06	-8.762419e-09	-5.478117e+01	-5.739112e+02
1.700000e-07	-7.503993e-06	-8.707025e-09	-5.444321e+01	-5.733182e+02
1.800000e-07	-7.454605e-06	-8.770585e-09	-5.408489e+01	-5.726670e+02
1.900000e-07	-7.402157e-06	-8.726087e-09	-5.370436e+01	-5.719509e+02
2.000000e-07	-7.346876e-06	-8.688535e-09	-5.330329e+01	-5.711700e+02
2.100000e-07	-7.288888e-06	-8.689301e-09	-5.288257e+01	-5.703322e+02
2.200000e-07	-7.228329e-06	-8.674877e-09	-5.244320e+01	-5.694520e+02
2.300000e-07	-7.165226e-06	-8.680232e-09	-5.198538e+01	-5.685465e+02
2.400000e-07	-7.099385e-06	-8.652212e-09	-5.150768e+01	-5.676315e+02
2.500000e-07	-7.030908e-06	-8.657133e-09	-5.101087e+01	-5.667171e+02
2.600000e-07	-6.959867e-06	-8.621621e-09	-5.049545e+01	-5.658043e+02
2.700000e-07	-6.886165e-06	-8.613515e-09	-4.996072e+01	-5.648851e+02
2.800000e-07	-6.809786e-06	-8.610383e-09	-4.940658e+01	-5.639433e+02
2.900000e-07	-6.730682e-06	-8.594796e-09	-4.883266e+01	-5.629592e+02
3.000000e-07	-6.648994e-06	-8.585297e-09	-4.823999e+01	-5.619138e+02
3.100000e-07	-6.565064e-06	-8.535798e-09	-4.763106e+01	-5.607939e+02
3.200000e-07	-6.479029e-06	-8.529145e-09	-4.700686e+01	-5.595950e+02
3.300000e-07	-6.390746e-06	-8.520681e-09	-4.636635e+01	-5.583223e+02
3.400000e-07	-6.300105e-06	-8.503953e-09	-4.570873e+01	-5.569887e+02
3.500000e-07	-6.207222e-06	-8.470374e-09	-4.503484e+01	-5.556113e+02
3.600000e-07	-6.112155e-06	-8.448145e-09	-4.434511e+01	-5.542069e+02
3.700000e-07	-6.014835e-06	-8.434842e-09	-4.363903e+01	-5.527875e+02
3.800000e-07	-5.915301e-06	-8.412316e-09	-4.291688e+01	-5.513576e+02
3.900000e-07	-5.813690e-06	-8.401391e-09	-4.217967e+01	-5.499137e+02
4.000000e-07	-5.709996e-06	-8.375855e-09	-4.142735e+01	-5.484454e+02
4.100000e-07	-5.604187e-06	-8.345638e-09	-4.065968e+01	-5.469391e+02
4.200000e-07	-5.496299e-06	-8.312098e-09	-3.987693e+01	-5.453813e+02
4.300000e-07	-5.386486e-06	-8.297885e-09	-3.908020e+01	-5.437616e+02
4.400000e-07	-5.274732e-06	-8.281359e-09	-3.826941e+01	-5.420752e+02
4.500000e-07	-5.160867e-06	-8.250301e-09	-3.744329e+01	-5.403222e+02
4.600000e-07	-5.044960e-06	-8.211290e-09	-3.660235e+01	-5.385067e+02
4.700000e-07	-4.927141e-06	-8.186611e-09	-3.574755e+01	-5.366343e+02
4.800000e-07	-4.807516e-06	-8.169497e-09	-3.487964e+01	-5.347097e+02
4.900000e-07	-4.686114e-06	-8.140659e-09	-3.399885e+01	-5.327350e+02
5.000000e-07	-4.562998e-06	-8.105657e-09	-3.310561e+01	-5.307101e+02
5.100000e-07	-4.438241e-06	-8.068139e-09	-3.220047e+01	-5.286329e+02
5.200000e-07	-4.311897e-06	-8.031048e-09	-3.128381e+01	-5.265015e+02
5.300000e-07	-4.183979e-06	-7.995902e-09	-3.035574e+01	-5.243159e+02
5.400000e-07	-4.054534e-06	-7.970969e-09	-2.941659e+01	-5.220789e+02
5.500000e-07	-3.923626e-06	-7.936718e-09	-2.846682e+01	-5.197954e+02
5.600000e-07	-3.791325e-06	-7.893436e-09	-2.750694e+01	-5.174710e+02
5.700000e-07	-3.657673e-06	-7.856204e-09	-2.653727e+01	-5.151088e+02
5.800000e-07	-3.522684e-06	-7.831523e-09	-2.555789e+01	-5.127077e+02
5.900000e-07	-3.386440e-06	-7.800576e-09	-2.456941e+01	-5.102599e+02
6.000000e-07	-3.248934e-06	-7.754452e-09	-2.357177e+01	-5.077519e+02
6.100000e-07	-3.110146e-06	-7.708153e-09	-2.256483e+01	-5.051665e+02
6.200000e-07	-2.970017e-06	-7.667679e-09	-2.154816e+01	-5.024863e+02
6.300000e-07	-2.828607e-06	-7.630203e-09	-2.052220e+01	-4.996983e+02
6.400000e-07	-2.686080e-06	-7.587222e-09	-1.948813e+01	-4.967974e+02
6.500000e-07	-2.542494e-06	-7.540931e-09	-1.844638e+01	-4.937882e+02
6.600000e-07	-2.398049e-06	-7.489274e-09	-1.739840e+01	-4.906835e+02
6.700000e-07	-2.252803e-06	-7.439658e-09	-1.634461e+01	-4.875019e+02
6.800000e-07	-2.106675e-06	-7.398320e-09	-1.528441e+01	-4.842615e+02
6.900000e-07	-1.959799e-06	-7.355189e-09	-1.421880e+01	-4.809754e+02
7.000000e-07	-1.812290e-06	-7.301813e-09	-1.314859e+01	-4.776469e+02
7.100000e-07	-1.664215e-06	-7.241795e-09	-1.207427e+01	-4.742679e+02
7.200000e-07	-1.515638e-06	-7.186355e-09	-1.099631e+01	-4.708205e+02
7.300000e-07	-1.366510e-06	-7.138124e-09	-9.914346e+00	-4.672808e+02
7.400000e-07	-1.216911e-06	-7.086643e-09	-8.828972e+00	-4.636248e+02
7.500000e-07	-1.066930e-06	-7.026956e-09	-7.740826e+00	-4.598339e+02
7.600000e-07	-9.165358e-07	-6.964121e-09	-6.649680e+00	-4.558984e+02
7.700000e-07	-7.657802e-07	-6.900869e-09	-5.555913e+00	-4.518183e+02
7.800000e-07	-6.147734e-07	-6.840683e-09	-4.460324e+00	-4.476003e+02
7.900000e-07	-4.635435e-07	-6.776371e-09	-3.363116e+00	-4.432523e+02
8.000000e-07	-3.121552e-07	-6.704786e-09	-2.264759e+00	-4.387774e+02
8.100000e-07	-1.607165e-07	-6.628086e-09	-1.166036e+00	-4.341677e+02
8.200000e-07	-9.263326e-09	-6.550278e-09	-6.720758e-02	-4.294029e+02
8.300000e-07	1.422048e-07	-6.476848e-09	1.031729e+00	-4.244509e+02
8.400000e-07	2.936186e-07	-6.400395e-09	2.130271e+00	-4.192738e+02
8.500000e-07	4.449742e-07	-6.315934e-09	3.228391e+00	-4.138351e+02
8.600000e-07	5.962406e-07	-6.224172e-09	4.325864e+00	-4.081088e+02
8.700000e-07	7.472835e-07	-6.132086e-09	5.421715e+00	-4.020842e+02
8.800000e-07	8.980444e-07	-6.042789e-09	6.515520e+00	-3.957684e+02
8.900000e-07	1.048470e-06	-5.947229e-09	7.606892e+00	-3.891823e+02
9.000000e-07	1.198491e-06	-5.839745e-09	8.695333e+00	-3.823530e+02
9.100000e-07	1.348018e-06	-5.723925e-09	9.780181e+00	-3.753023e+02
9.200000e-07	1.497011e-06	-5.609128e-09	1.086116e+01	-3.680364e+02
9.300000e-07	1.645461e-06	-5.496878e-09	1.193820e+01	-3.605382e+02
9.400000e-07	1.793378e-06	-5.381467e-09	1.301137e+01	-3.527637e+02
9.500000e-07	1.940727e-06	-5.257326e-09	1.408042e+01	-3.446453e+02
9.600000e-07	2.087408e-06	-5.123916e-09	1.514463e+01	-3.360976e+02
9.700000e-07	2.233363e-06	-4.983223e-09	1.620356e+01	-3.270255e+02
9.800000e-07	2.378501e-06	-4.835870e-09	1.725658e+01	-3.173299e+02
9.900000e-07	2.522786e-06	-4.679421e-09	1.830340e+01	-3.069078e+02
1.000000e-06	2.666164e-06	-4.503748e-09	1.934364e+01	-2.956461e+02
1.010000e-06	2.808516e-06	-4.309321e-09	2.037644e+01	-2.834085e+02
1.020000e-06	2.949787e-06	-4.100004e-09	2.140139e+01	-2.700195e+02
1.030000e-06	3.089948e-06	-3.873203e-09	2.241829e+01	-2.552507e+02
1.040000e-06	3.228902e-06	-3.622692e-09	2.342643e+01	-2.388144e+02
1.050000e-06	3.366593e-06	-3.340194e-09	2.442541e+01	-2.203711e+02
1.060000e-06	3.503008e-06	-3.018960e-09	2.541514e+01	-1.995532e+02
1.070000e-06	3.638135e-06	-2.655046e-09	2.639551e+01	-1.760049e+02
1.080000e-06	3.771968e-06	-2.249065e-09	2.736650e+01	-1.494328e+02
1.090000e-06	3.904487e-06	-1.796965e-09	2.832796e+01	-1.196620e+02
1.100000e-06	4.035563e-06	-1.292480e-09	2.927895e+01	-8.668589e+01
1.110000e-06	4.165163e-06	-7.374539e-10	3.021922e+01	-5.069971e+01
1.120000e-06	4.293299e-06	-1.432871e-10	3.114888e+01	-1.211199e+01
1.130000e-06	4.419855e-06	4.767030e-10	3.206707e+01	2.847225e+01
1.140000e-06	4.544904e-06	1.114062e-09	3.297433e+01	7.029475e+01
1.150000e-06	4.668431e-06	1.760371e-09	3.387055e+01	1.125081e+02
1.160000e-06	4.790278e-06	2.398441e-09	3.475458e+01	1.542515e+02
1.170000e-06	4.910371e-06	3.012825e-09	3.562588e+01	1.947254e+02
1.180000e-06	5.028680e-06	3.592538e-09	3.648424e+01	2.332564e+02
1.190000e-06	5.145121e-06	4.133649e-09	3.732904e+01	2.693395e+02
1.200000e-06	5.259518e-06	4.635639e-09	3.815902e+01	3.026574e+02
1.210000e-06	5.371881e-06	5.097548e-09	3.897425e+01	3.330729e+02
1.220000e-06	5.482317e-06	5.517906e-09	3.977549e+01	3.606019e+02
1.230000e-06	5.590852e-06	5.893033e-09	4.056293e+01	3.853722e+02
1.240000e-06	5.697372e-06	6.227437e-09	4.133576e+01	4.075791e+02
1.250000e-06	5.801762e-06	6.527708e-09	4.209313e+01	4.274448e+02
1.260000e-06	5.904117e-06	6.798357e-09	4.283574e+01	4.451875e+02
1.270000e-06	6.004403e-06	7.038086e-09	4.356334e+01	4.610052e+02
1.280000e-06	6.102471e-06	7.246107e-09	4.427484e+01	4.750704e+02
1.290000e-06	6.198255e-06	7.429217e-09	4.496977e+01	4.875354e+02
1.300000e-06	6.291869e-06	7.593435e-09	4.564897e+01	4.985415e+02
1.310000e-06	6.383341e-06	7.741953e-09	4.631262e+01	5.082286e+02
1.320000e-06	6.472495e-06	7.874538e-09	4.695945e+01	5.167406e+02
1.330000e-06	6.559329e-06	7.989974e-09	4.758945e+01	5.242249e+02
1.340000e-06	6.644009e-06	8.089311e-09	4.820383e+01	5.308277e+02
1.350000e-06	6.726501e-06	8.176637e-09	4.880232e+01	5.366847e+02
1.360000e-06	6.806543e-06	8.257139e-09	4.938305e+01	5.419132e+02
1.370000e-06	6.884040e-06	8.329682e-09	4.994531e+01	5.466052e+02
1.380000e-06	6.958939e-06	8.391933e-09	5.048872e+01	5.508267e+02
1.390000e-06	7.031217e-06	8.445761e-09	5.101311e+01	5.546198e+02
1.400000e-06	7.100985e-06	8.493626e-09	5.151929e+01	5.580109e+02
1.410000e-06	7.168226e-06	8.538282e-09	5.200714e+01	5.610189e+02
1.420000e-06	7.232819e-06	8.579240e-09	5.247578e+01	5.636640e+02
1.430000e-06	7.294849e-06	8.614706e-09	5.292582e+01	5.659731e+02
1.440000e-06	7.354415e-06	8.644363e-09	5.335799e+01	5.679817e+02
1.450000e-06	7.411395e-06	8.670532e-09	5.377139e+01	5.697320e+02
1.460000e-06	7.465687e-06	8.694943e-09	5.416529e+01	5.712682e+02
1.470000e-06	7.517021e-06	8.717248e-09	5.453773e+01	5.726308e+02
1.480000e-06	7.565261e-06	8.735069e-09	5.488772e+01	5.738520e+02
1.490000e-06	7.610761e-06	8.748828e-09	5.521783e+01	5.749531e+02
1.500000e-06	7.653636e-06	8.762316e-09	5.552891e+01	5.759453e+02
1.510000e-06	7.693719e-06	8.776763e-09	5.581972e+01	5.768319e+02
1.520000e-06	7.731129e-06	8.790053e-09	5.609114e+01	5.776135e+02
1.530000e-06	7.765931e-06	8.800106e-09	5.634363e+01	5.782917e+02
1.540000e-06	7.797918e-06	8.808107e-09	5.657571e+01	5.788719e+02
1.550000e-06	7.827215e-06	8.817031e-09	5.678826e+01	5.793648e+02
1.560000e-06	7.853764e-06	8.826292e-09	5.698088e+01	5.797844e+02
1.570000e-06	7.877381e-06	8.833947e-09	5.715223e+01	5.801455e+02
1.580000e-06	7.898314e-06	8.839628e-09	5.730410e+01	5.804601e+02
1.590000e-06	7.916616e-06	8.843170e-09	5.743688e+01	5.807351e+02
1.600000e-06	7.932041e-06	8.846412e-09	5.754880e+01	5.809709e+02
1.610000e-06	7.944364e-06	8.850550e-09	5.763821e+01	5.811630e+02
1.620000e-06	7.953586e-06	8.855037e-09	5.770511e+01	5.813035e+02
1.630000e-06	7.959967e-06	8.857488e-09	5.775141e+01	5.813852e+02
1.640000e-06	7.963682e-06	8.858244e-09	5.777836e+01	5.814038e+02
1.650000e-06	7.964564e-06	8.859483e-09	5.778476e+01	5.813601e+02
1.660000e-06	7.962683e-06	8.856057e-09	5.777111e+01	5.812599e+02
1.670000e-06	7.958253e-06	8.854730e-09	5.773897e+01	5.811123e+02
1.680000e-06	7.951103e-06	8.851491e-09	5.768710e+01	5.809276e+02
1.690000e-06	7.941330e-06	8.847481e-09	5.761619e+01	5.807140e+02
1.700000e-06	7.928972e-06	8.847548e-09	5.752653e+01	5.804766e+02
1.710000e-06	7.913832e-06	8.848608e-09	5.741669e+01	5.802160e+02
1.720000e-06	7.896147e-06	8.845268e-09	5.728838e+01	5.799297e+02
1.730000e-06	7.876069e-06	8.791191e-09	5.714271e+01	5.796139e+02
1.740000e-06	7.852942e-06	8.769983e-09	5.697492e+01	5.792656e+02
1.750000e-06	7.826143e-06	8.807122e-09	5.678048e+01	5.788846e+02
1.760000e-06	7.795918e-06	8.809487e-09	5.656119e+01	5.784735e+02
1.770000e-06	7.763023e-06	8.795466e-09	5.632253e+01	5.780373e+02
1.780000e-06	7.727965e-06	8.816800e-09	5.606818e+01	5.775809e+02
1.790000e-06	7.690692e-06	8.811977e-09	5.579775e+01	5.771069e+02
1.800000e-06	7.651207e-06	8.731949e-09	5.551128e+01	5.766134e+02
1.810000e-06	7.609305e-06	8.794131e-09	5.520727e+01	5.760936e+02
1.820000e-06	7.564808e-06	8.790143e-09	5.488444e+01	5.755365e+02
1.830000e-06	7.517651e-06	8.752179e-09	5.454230e+01	5.749295e+02
1.840000e-06	7.467555e-06	8.794105e-09	5.417884e+01	5.742622e+02
1.850000e-06	7.414529e-06	8.741531e-09	5.379413e+01	5.735293e+02
1.860000e-06	7.358596e-06	8.773664e-09	5.338832e+01	5.727328e+02
1.870000e-06	7.300043e-06	8.729975e-09	5.296351e+01	5.718826e+02
1.880000e-06	7.239031e-06	8.724535e-09	5.252085e+01	5.709941e+02
1.890000e-06	7.175178e-06	8.727859e-09	5.205758e+01	5.700846e+02
1.900000e-06	7.108585e-06	8.658012e-09	5.157444e+01	5.691689e+02
1.910000e-06	7.039357e-06	8.699631e-09	5.107217e+01	5.682548e+02
1.920000e-06	6.967482e-06	8.664450e-09	5.055070e+01	5.673412e+02
1.930000e-06	6.892992e-06	8.660918e-09	5.001026e+01	5.664178e+02
1.940000e-06	6.815776e-06	8.617170e-09	4.945003e+01	5.654670e+02
1.950000e-06	6.735968e-06	8.594782e-09	4.887101e+01	5.644689e+02
1.960000e-06	6.653745e-06	8.622448e-09	4.827446e+01	5.634055e+02
1.970000e-06	6.569219e-06	8.578019e-09	4.766121e+01	5.622656e+02
1.980000e-06	6.482256e-06	8.578454e-09	4.703027e+01	5.610471e+02
1.990000e-06	6.392924e-06	8.538954e-09	4.638215e+01	5.597574e+02
2.000000e-06	6.301424e-06	8.534733e-09	4.571830e+01	5.584109e+02
2.010000e-06	6.207678e-06	8.504456e-09	4.503815e+01	5.570250e+02
2.020000e-06	6.111753e-06	8.491112e-09	4.434218e+01	5.556157e+02
2.030000e-06	6.013733e-06	8.473627e-09	4.363103e+01	5.541932e+02
2.040000e-06	5.913559e-06	8.428162e-09	4.290424e+01	5.527602e+02
2.050000e-06	5.811136e-06	8.405052e-09	4.216114e+01	5.513110e+02
2.060000e-06	5.706596e-06	8.381670e-09	4.140267e+01	5.498343e+02
2.070000e-06	5.600095e-06	8.380731e-09	4.062999e+01	5.483160e+02
2.080000e-06	5.491679e-06	8.343481e-09	3.984340e+01	5.467431e+02
2.090000e-06	5.381271e-06	8.314360e-09	3.904237e+01	5.451067e+02
2.100000e-06	5.268860e-06	8.287622e-09	3.822681e+01	5.434031e+02
2.110000e-06	5.154442e-06	8.272264e-09	3.739667e+01	5.416337e+02
2.120000e-06	5.037914e-06	8.240523e-09	3.655123e+01	5.398032e+02
2.130000e-06	4.919437e-06	8.206542e-09	3.569166e+01	5.379171e+02
2.140000e-06	4.799121e-06	8.175058e-09	3.481874e+01	5.359795e+02
2.150000e-06	4.677047e-06	8.139211e-09	3.393306e+01	5.339921e+02
2.160000e-06	4.553299e-06	8.109604e-09	3.303524e+01	5.319540e+02
2.170000e-06	4.427904e-06	8.085592e-09	3.212547e+01	5.298631e+02
2.180000e-06	4.300987e-06	8.057634e-09	3.120466e+01	5.277177e+02
2.190000e-06	4.172557e-06	8.013812e-09	3.027287e+01	5.255186e+02
2.200000e-06	4.042597e-06	7.980838e-09	2.932998e+01	5.232692e+02
2.210000e-06	3.911260e-06	7.954982e-09	2.837710e+01	5.209747e+02
2.220000e-06	3.778530e-06	7.923207e-09	2.741411e+01	5.186403e+02
2.230000e-06	3.644389e-06	7.875835e-09	2.644089e+01	5.162685e+02
2.240000e-06	3.508978e-06	7.832605e-09	2.545845e+01	5.138563e+02
2.250000e-06	3.372268e-06	7.796171e-09	2.446659e+01	5.113946e+02
2.260000e-06	3.234242e-06	7.760745e-09	2.346518e+01	5.088687e+02
2.270000e-06	3.094975e-06	7.721678e-09	2.245476e+01	5.062608e+02
2.280000e-06	2.954639e-06	7.680640e-09	2.143659e+01	5.035543e+02
2.290000e-06	2.813225e-06	7.633571e-09	2.041060e+01	5.007379e+02
2.300000e-06	2.670692e-06	7.586036e-09	1.937649e+01	4.978089e+02
2.310000e-06	2.527146e-06	7.546275e-09	1.833503e+01	4.947739e+02
2.320000e-06	2.382690e-06	7.503854e-09	1.728697e+01	4.916479e+02
2.330000e-06	2.237376e-06	7.450544e-09	1.623268e+01	4.884497e+02
2.340000e-06	2.091238e-06	7.393248e-09	1.517242e+01	4.851967e+02
2.350000e-06	1.944370e-06	7.343239e-09	1.410685e+01	4.818998e+02
2.360000e-06	1.796835e-06	7.297392e-09	1.303645e+01	4.785595e+02
2.370000e-06	1.648697e-06	7.246680e-09	1.196168e+01	4.751652e+02
2.380000e-06	1.500046e-06	7.189791e-09	1.088318e+01	4.716967e+02
2.390000e-06	1.350940e-06	7.129779e-09	9.801386e+00	4.681298e+02
2.400000e-06	1.201268e-06	7.070992e-09	8.715475e+00	4.644412e+02
2.410000e-06	1.051035e-06	7.016692e-09	7.625504e+00	4.606143e+02
2.420000e-06	9.004570e-07	6.962813e-09	6.533024e+00	4.566421e+02
2.430000e-06	7.496846e-07	6.902431e-09	5.439136e+00	4.525264e+02
2.440000e-06	5.987443e-07	6.833219e-09	4.344028e+00	4.482749e+02
2.450000e-06	4.476420e-07	6.763984e-09	3.247746e+00	4.438949e+02
2.460000e-06	2.963614e-07	6.699619e-09	2.150170e+00	4.393872e+02
2.470000e-06	1.448504e-07	6.632162e-09	1.050923e+00	4.347409e+02
2.480000e-06	-6.736519e-09	6.557773e-09	-4.887501e-02	4.299323e+02
2.490000e-06	-1.581881e-07	6.479331e-09	-1.147692e+00	4.249274e+02
2.500000e-06	-3.095726e-07	6.399473e-09	-2.246021e+00	4.196877e+02
2.510000e-06	-4.609140e-07	6.316951e-09	-3.344038e+00	4.141787e+02
2.520000e-06	-6.120873e-07	6.230279e-09	-4.440836e+00	4.083778e+02
2.530000e-06	-7.629668e-07	6.138649e-09	-5.535501e+00	4.022788e+02
2.540000e-06	-9.135101e-07	6.039545e-09	-6.627727e+00	3.958928e+02
2.550000e-06	-1.063726e-06	5.936716e-09	-7.717579e+00	3.892431e+02
2.560000e-06	-1.213545e-06	5.833887e-09	-8.804552e+00	3.823565e+02
2.570000e-06	-1.362957e-06	5.728335e-09	-9.888570e+00	3.752519e+02
2.580000e-06	-1.511883e-06	5.617228e-09	-1.096906e+01	3.679303e+02
2.590000e-06	-1.660221e-06	5.499584e-09	-1.204529e+01	3.603678e+02
2.600000e-06	-1.807989e-06	5.378046e-09	-1.311738e+01	3.525142e+02
2.610000e-06	-1.955127e-06	5.255767e-09	-1.418490e+01	3.442967e+02
2.620000e-06	-2.101536e-06	5.129537e-09	-1.524713e+01	3.356268e+02
2.630000e-06	-2.247174e-06	4.992536e-09	-1.630377e+01	3.264078e+02
2.640000e-06	-2.392045e-06	4.841124e-09	-1.735484e+01	3.165401e+02
2.650000e-06	-2.536021e-06	4.678459e-09	-1.839942e+01	3.059191e+02
2.660000e-06	-2.679010e-06	4.507847e-09	-1.943684e+01	2.944271e+02
2.670000e-06	-2.821001e-06	4.323665e-09	-2.046702e+01	2.819197e+02
2.680000e-06	-2.961899e-06	4.116991e-09	-2.148926e+01	2.682092e+02
2.690000e-06	-3.101636e-06	3.883248e-09	-2.250309e+01	2.530525e+02
2.700000e-06	-3.240191e-06	3.622980e-09	-2.350834e+01	2.361475e+02
2.710000e-06	-3.377536e-06	3.335918e-09	-2.450481e+01	2.171451e+02
2.720000e-06	-3.513632e-06	3.015147e-09	-2.549222e+01	1.956762e+02
2.730000e-06	-3.648450e-06	2.649911e-09	-2.647035e+01	1.713954e+02
2.740000e-06	-3.781957e-06	2.234381e-09	-2.743898e+01	1.440339e+02
2.750000e-06	-3.914132e-06	1.770721e-09	-2.839794e+01	1.134547e+02
2.760000e-06	-4.044873e-06	1.261337e-09	-2.934649e+01	7.969906e+01
2.770000e-06	-4.174230e-06	7.067520e-10	-3.028501e+01	4.301572e+01
2.780000e-06	-4.302132e-06	1.113884e-10	-3.121296e+01	3.864936e+00
2.790000e-06	-4.428485e-06	-5.167542e-10	-3.212969e+01	-3.710497e+01
2.800000e-06	-4.553309e-06	-1.162280e-09	-3.303531e+01	-7.910681e+01
2.810000e-06	-4.676503e-06	-1.807483e-09	-3.392912e+01	-1.212825e+02
2.820000e-06	-4.798037e-06	-2.440485e-09	-3.481087e+01	-1.627798e+02
2.830000e-06	-4.917739e-06	-3.052228e-09	-3.567934e+01	-2.028254e+02
2.840000e-06	-5.035518e-06	-3.635916e-09	-3.653385e+01	-2.407848e+02
2.850000e-06	-5.151262e-06	-4.181541e-09	-3.737360e+01	-2.761994e+02
2.860000e-06	-5.264850e-06	-4.680965e-09	-3.819771e+01	-3.087982e+02
2.870000e-06	-5.376337e-06	-5.135531e-09	-3.900657e+01	-3.384858e+02
2.880000e-06	-5.485878e-06	-5.549780e-09	-3.980132e+01	-3.653101e+02
2.890000e-06	-5.593585e-06	-5.925033e-09	-4.058276e+01	-3.894199e+02
2.900000e-06	-5.699444e-06	-6.260011e-09	-4.135079e+01	-4.110207e+02
2.910000e-06	-5.803253e-06	-6.557084e-09	-4.210395e+01	-4.303360e+02
2.920000e-06	-5.904850e-06	-6.821159e-09	-4.284106e+01	-4.475803e+02
2.930000e-06	-6.004352e-06	-7.056377e-09	-4.356297e+01	-4.629449e+02
2.940000e-06	-6.101867e-06	-7.266136e-09	-4.427046e+01	-4.765967e+02
