# Temperatura_=_20.0
# Concentracion g/m^3_=_11600.0
# C_Vs_to_Am_M_A/Vsm_=_65563218390.804596
# pendiente_HvsI_1/m_=_3716.3
# ordenada_HvsI_A/m_=_1297.0
# frecuencia_Hz_=_301709.91709388595

Tiempo_(s)	Campo_(V.s)	Magnetizacion_(V.s)	Campo_(kA/m)	Magnetizacion_(A/m)
0.000000e+00	-8.041985e-06	-1.122995e-08	-5.755946e+01	-7.344068e+02
1.000000e-08	-8.039898e-06	-1.122845e-08	-5.754452e+01	-7.343572e+02
2.000000e-08	-8.035081e-06	-1.122788e-08	-5.751005e+01	-7.342352e+02
3.000000e-08	-8.027703e-06	-1.122478e-08	-5.745724e+01	-7.340367e+02
4.000000e-08	-8.017577e-06	-1.121974e-08	-5.738476e+01	-7.337584e+02
5.000000e-08	-8.004515e-06	-1.121436e-08	-5.729127e+01	-7.333991e+02
6.000000e-08	-7.988533e-06	-1.120725e-08	-5.717688e+01	-7.329606e+02
7.000000e-08	-7.969946e-06	-1.120327e-08	-5.704385e+01	-7.324481e+02
8.000000e-08	-7.948968e-06	-1.119082e-08	-5.689370e+01	-7.318701e+02
9.000000e-08	-7.925143e-06	-1.118982e-08	-5.672318e+01	-7.312381e+02
1.000000e-07	-7.898128e-06	-1.119400e-08	-5.652982e+01	-7.305647e+02
1.100000e-07	-7.868131e-06	-1.117068e-08	-5.631512e+01	-7.298626e+02
1.200000e-07	-7.835283e-06	-1.114581e-08	-5.608002e+01	-7.291421e+02
1.300000e-07	-7.799644e-06	-1.113144e-08	-5.582494e+01	-7.284100e+02
1.400000e-07	-7.761662e-06	-1.112407e-08	-5.555308e+01	-7.276676e+02
1.500000e-07	-7.721544e-06	-1.110361e-08	-5.526595e+01	-7.269104e+02
1.600000e-07	-7.678757e-06	-1.108801e-08	-5.495970e+01	-7.261278e+02
1.700000e-07	-7.633121e-06	-1.109401e-08	-5.463307e+01	-7.253042e+02
1.800000e-07	-7.584793e-06	-1.104097e-08	-5.428717e+01	-7.244206e+02
1.900000e-07	-7.533432e-06	-1.103669e-08	-5.391956e+01	-7.234571e+02
2.000000e-07	-7.479074e-06	-1.103773e-08	-5.353049e+01	-7.223962e+02
2.100000e-07	-7.421998e-06	-1.100033e-08	-5.312198e+01	-7.212245e+02
2.200000e-07	-7.362297e-06	-1.097939e-08	-5.269468e+01	-7.199356e+02
2.300000e-07	-7.300003e-06	-1.094440e-08	-5.224882e+01	-7.185306e+02
2.400000e-07	-7.234958e-06	-1.094177e-08	-5.178327e+01	-7.170180e+02
2.500000e-07	-7.167214e-06	-1.090577e-08	-5.129840e+01	-7.154115e+02
2.600000e-07	-7.096878e-06	-1.088154e-08	-5.079498e+01	-7.137280e+02
2.700000e-07	-7.023812e-06	-1.085472e-08	-5.027202e+01	-7.119835e+02
2.800000e-07	-6.947988e-06	-1.082065e-08	-4.972932e+01	-7.101904e+02
2.900000e-07	-6.869416e-06	-1.079653e-08	-4.916695e+01	-7.083547e+02
3.000000e-07	-6.788145e-06	-1.076795e-08	-4.858526e+01	-7.064756e+02
3.100000e-07	-6.704526e-06	-1.075017e-08	-4.798677e+01	-7.045453e+02
3.200000e-07	-6.618767e-06	-1.070371e-08	-4.737296e+01	-7.025515e+02
3.300000e-07	-6.530756e-06	-1.066876e-08	-4.674304e+01	-7.004802e+02
3.400000e-07	-6.440384e-06	-1.064371e-08	-4.609621e+01	-6.983191e+02
3.500000e-07	-6.347731e-06	-1.060994e-08	-4.543306e+01	-6.960598e+02
3.600000e-07	-6.252891e-06	-1.056798e-08	-4.475425e+01	-6.937002e+02
3.700000e-07	-6.155696e-06	-1.052937e-08	-4.405859e+01	-6.912436e+02
3.800000e-07	-6.056169e-06	-1.049617e-08	-4.334624e+01	-6.886978e+02
3.900000e-07	-5.954497e-06	-1.045286e-08	-4.261854e+01	-6.860721e+02
4.000000e-07	-5.850700e-06	-1.041184e-08	-4.187562e+01	-6.833746e+02
4.100000e-07	-5.744721e-06	-1.037149e-08	-4.111709e+01	-6.806093e+02
4.200000e-07	-5.636629e-06	-1.032635e-08	-4.034344e+01	-6.777751e+02
4.300000e-07	-5.526596e-06	-1.027409e-08	-3.955589e+01	-6.748656e+02
4.400000e-07	-5.414541e-06	-1.023063e-08	-3.875387e+01	-6.718711e+02
4.500000e-07	-5.300269e-06	-1.018778e-08	-3.793598e+01	-6.687805e+02
4.600000e-07	-5.183878e-06	-1.013819e-08	-3.710293e+01	-6.655852e+02
4.700000e-07	-5.065631e-06	-1.008465e-08	-3.625659e+01	-6.622804e+02
4.800000e-07	-4.945582e-06	-1.003676e-08	-3.539736e+01	-6.588667e+02
4.900000e-07	-4.823593e-06	-9.986348e-09	-3.452424e+01	-6.553496e+02
5.000000e-07	-4.699851e-06	-9.928764e-09	-3.363857e+01	-6.517372e+02
5.100000e-07	-4.574506e-06	-9.871201e-09	-3.274143e+01	-6.480374e+02
5.200000e-07	-4.447549e-06	-9.812374e-09	-3.183275e+01	-6.442548e+02
5.300000e-07	-4.318937e-06	-9.753139e-09	-3.091223e+01	-6.403887e+02
5.400000e-07	-4.188646e-06	-9.691211e-09	-2.997969e+01	-6.364318e+02
5.500000e-07	-4.056868e-06	-9.632612e-09	-2.903650e+01	-6.323713e+02
5.600000e-07	-3.923695e-06	-9.567418e-09	-2.808333e+01	-6.281914e+02
5.700000e-07	-3.789267e-06	-9.495839e-09	-2.712118e+01	-6.238763e+02
5.800000e-07	-3.653502e-06	-9.425171e-09	-2.614946e+01	-6.194133e+02
5.900000e-07	-3.516126e-06	-9.357451e-09	-2.516621e+01	-6.147953e+02
6.000000e-07	-3.377256e-06	-9.284701e-09	-2.417227e+01	-6.100213e+02
6.100000e-07	-3.237196e-06	-9.207584e-09	-2.316981e+01	-6.050950e+02
6.200000e-07	-3.095921e-06	-9.131416e-09	-2.215865e+01	-6.000225e+02
6.300000e-07	-2.953242e-06	-9.052046e-09	-2.113744e+01	-5.948086e+02
6.400000e-07	-2.809287e-06	-8.969448e-09	-2.010711e+01	-5.894540e+02
6.500000e-07	-2.664415e-06	-8.884949e-09	-1.907021e+01	-5.839530e+02
6.600000e-07	-2.518675e-06	-8.799834e-09	-1.802709e+01	-5.782936e+02
6.700000e-07	-2.372098e-06	-8.708170e-09	-1.697799e+01	-5.724589e+02
6.800000e-07	-2.224799e-06	-8.613743e-09	-1.592371e+01	-5.664305e+02
6.900000e-07	-2.076788e-06	-8.517468e-09	-1.486434e+01	-5.601916e+02
7.000000e-07	-1.928065e-06	-8.419934e-09	-1.379987e+01	-5.537306e+02
7.100000e-07	-1.778672e-06	-8.316603e-09	-1.273062e+01	-5.470424e+02
7.200000e-07	-1.628672e-06	-8.209382e-09	-1.165701e+01	-5.401275e+02
7.300000e-07	-1.478162e-06	-8.101736e-09	-1.057975e+01	-5.329904e+02
7.400000e-07	-1.327207e-06	-7.990735e-09	-9.499312e+00	-5.256349e+02
7.500000e-07	-1.175760e-06	-7.876594e-09	-8.415345e+00	-5.180604e+02
7.600000e-07	-1.023728e-06	-7.756824e-09	-7.327200e+00	-5.102582e+02
7.700000e-07	-8.711013e-07	-7.632190e-09	-6.234794e+00	-5.022100e+02
7.800000e-07	-7.180182e-07	-7.502449e-09	-5.139122e+00	-4.938885e+02
7.900000e-07	-5.645920e-07	-7.370108e-09	-4.040994e+00	-4.852599e+02
8.000000e-07	-4.109610e-07	-7.233976e-09	-2.941399e+00	-4.762889e+02
8.100000e-07	-2.571899e-07	-7.092503e-09	-1.840803e+00	-4.669422e+02
8.200000e-07	-1.032544e-07	-6.943448e-09	-7.390300e-01	-4.571925e+02
8.300000e-07	5.074509e-08	-6.788341e-09	3.632014e-01	-4.470204e+02
8.400000e-07	2.046780e-07	-6.628472e-09	1.464956e+00	-4.364134e+02
8.500000e-07	3.584970e-07	-6.461117e-09	2.565896e+00	-4.253633e+02
8.600000e-07	5.121725e-07	-6.286048e-09	3.665808e+00	-4.138625e+02
8.700000e-07	6.656155e-07	-6.103367e-09	4.764056e+00	-4.018999e+02
8.800000e-07	8.187945e-07	-5.912107e-09	5.860415e+00	-3.894574e+02
8.900000e-07	9.716599e-07	-5.712103e-09	6.954529e+00	-3.765084e+02
9.000000e-07	1.124033e-06	-5.506162e-09	8.045120e+00	-3.630179e+02
9.100000e-07	1.275816e-06	-5.293113e-09	9.131488e+00	-3.489427e+02
9.200000e-07	1.427034e-06	-5.071245e-09	1.021381e+01	-3.342323e+02
9.300000e-07	1.577695e-06	-4.839275e-09	1.129215e+01	-3.188274e+02
9.400000e-07	1.727788e-06	-4.596471e-09	1.236642e+01	-3.026569e+02
9.500000e-07	1.877355e-06	-4.339961e-09	1.343693e+01	-2.856318e+02
9.600000e-07	2.026299e-06	-4.066006e-09	1.450297e+01	-2.676381e+02
9.700000e-07	2.174478e-06	-3.772894e-09	1.556354e+01	-2.485305e+02
9.800000e-07	2.321942e-06	-3.457986e-09	1.661900e+01	-2.281286e+02
9.900000e-07	2.468724e-06	-3.120969e-09	1.766957e+01	-2.062197e+02
1.000000e-06	2.614708e-06	-2.757408e-09	1.871443e+01	-1.825697e+02
1.010000e-06	2.759730e-06	-2.365977e-09	1.975241e+01	-1.569416e+02
1.020000e-06	2.903650e-06	-1.944493e-09	2.078250e+01	-1.291231e+02
1.030000e-06	3.046450e-06	-1.487170e-09	2.180457e+01	-9.895721e+01
1.040000e-06	3.188142e-06	-9.914397e-10	2.281871e+01	-6.637499e+01
1.050000e-06	3.328665e-06	-4.561921e-10	2.382448e+01	-3.142211e+01
1.060000e-06	3.467937e-06	1.113390e-10	2.482131e+01	5.723360e+00
1.070000e-06	3.605838e-06	7.072899e-10	2.580832e+01	4.474695e+01
1.080000e-06	3.742236e-06	1.325602e-09	2.678456e+01	8.520889e+01
1.090000e-06	3.877172e-06	1.957903e-09	2.775035e+01	1.265699e+02
1.100000e-06	4.010792e-06	2.592357e-09	2.870672e+01	1.682285e+02
1.110000e-06	4.143087e-06	3.220249e-09	2.965361e+01	2.095656e+02
1.120000e-06	4.273948e-06	3.834792e-09	3.059023e+01	2.499895e+02
1.130000e-06	4.403192e-06	4.425476e-09	3.151527e+01	2.889762e+02
1.140000e-06	4.530764e-06	4.987324e-09	3.242835e+01	3.261005e+02
1.150000e-06	4.656790e-06	5.516472e-09	3.333037e+01	3.610532e+02
1.160000e-06	4.781302e-06	6.010669e-09	3.422154e+01	3.936456e+02
1.170000e-06	4.904230e-06	6.465801e-09	3.510139e+01	4.238012e+02
1.180000e-06	5.025354e-06	6.884718e-09	3.596832e+01	4.515375e+02
1.190000e-06	5.144526e-06	7.272205e-09	3.682128e+01	4.769433e+02
1.200000e-06	5.261794e-06	7.624845e-09	3.766061e+01	5.001538e+02
1.210000e-06	5.377133e-06	7.943967e-09	3.848613e+01	5.213280e+02
1.220000e-06	5.490350e-06	8.235928e-09	3.929646e+01	5.406313e+02
1.230000e-06	5.601407e-06	8.502232e-09	4.009134e+01	5.582232e+02
1.240000e-06	5.710515e-06	8.744716e-09	4.087227e+01	5.742511e+02
1.250000e-06	5.817720e-06	8.963670e-09	4.163957e+01	5.888485e+02
1.260000e-06	5.922849e-06	9.161342e-09	4.239202e+01	6.021363e+02
1.270000e-06	6.025804e-06	9.343587e-09	4.312891e+01	6.142249e+02
1.280000e-06	6.126604e-06	9.511894e-09	4.385037e+01	6.252171e+02
1.290000e-06	6.225182e-06	9.665811e-09	4.455593e+01	6.352097e+02
1.300000e-06	6.321388e-06	9.804511e-09	4.524451e+01	6.442945e+02
1.310000e-06	6.415324e-06	9.930787e-09	4.591684e+01	6.525578e+02
1.320000e-06	6.507149e-06	1.004637e-08	4.657407e+01	6.600807e+02
1.330000e-06	6.596687e-06	1.015059e-08	4.721493e+01	6.669381e+02
1.340000e-06	6.683848e-06	1.024504e-08	4.783877e+01	6.731992e+02
1.350000e-06	6.768710e-06	1.032995e-08	4.844616e+01	6.789271e+02
1.360000e-06	6.851209e-06	1.040846e-08	4.903663e+01	6.841796e+02
1.370000e-06	6.931225e-06	1.048014e-08	4.960934e+01	6.890089e+02
1.380000e-06	7.008684e-06	1.054648e-08	5.016374e+01	6.934622e+02
1.390000e-06	7.083509e-06	1.061010e-08	5.069929e+01	6.975808e+02
1.400000e-06	7.155693e-06	1.066835e-08	5.121594e+01	7.013996e+02
1.410000e-06	7.225337e-06	1.072078e-08	5.171441e+01	7.049467e+02
1.420000e-06	7.292422e-06	1.076851e-08	5.219456e+01	7.082433e+02
1.430000e-06	7.356877e-06	1.081431e-08	5.265589e+01	7.113038e+02
1.440000e-06	7.418762e-06	1.085834e-08	5.309882e+01	7.141373e+02
1.450000e-06	7.478107e-06	1.089972e-08	5.352358e+01	7.167495e+02
1.460000e-06	7.534813e-06	1.093743e-08	5.392944e+01	7.191445e+02
1.470000e-06	7.588733e-06	1.096948e-08	5.431536e+01	7.213274e+02
1.480000e-06	7.639572e-06	1.099795e-08	5.467924e+01	7.233053e+02
1.490000e-06	7.687323e-06	1.102594e-08	5.502101e+01	7.250883e+02
1.500000e-06	7.732339e-06	1.105186e-08	5.534321e+01	7.266897e+02
1.510000e-06	7.774657e-06	1.107328e-08	5.564609e+01	7.281246e+02
1.520000e-06	7.814223e-06	1.109130e-08	5.592928e+01	7.294087e+02
1.530000e-06	7.851113e-06	1.110882e-08	5.619332e+01	7.305570e+02
1.540000e-06	7.885281e-06	1.112610e-08	5.643787e+01	7.315823e+02
1.550000e-06	7.916636e-06	1.114144e-08	5.666229e+01	7.324947e+02
1.560000e-06	7.945256e-06	1.115424e-08	5.686713e+01	7.333019e+02
1.570000e-06	7.971055e-06	1.116350e-08	5.705179e+01	7.340094e+02
1.580000e-06	7.993972e-06	1.117191e-08	5.721581e+01	7.346215e+02
1.590000e-06	8.014180e-06	1.118010e-08	5.736045e+01	7.351423e+02
1.600000e-06	8.031615e-06	1.118771e-08	5.748524e+01	7.355763e+02
1.610000e-06	8.046027e-06	1.119423e-08	5.758839e+01	7.359285e+02
1.620000e-06	8.057300e-06	1.119820e-08	5.766907e+01	7.362042e+02
1.630000e-06	8.065504e-06	1.120096e-08	5.772779e+01	7.364082e+02
1.640000e-06	8.070883e-06	1.120376e-08	5.776629e+01	7.365441e+02
1.650000e-06	8.073463e-06	1.120654e-08	5.778476e+01	7.366134e+02
1.660000e-06	8.073205e-06	1.120891e-08	5.778291e+01	7.366157e+02
1.670000e-06	8.070303e-06	1.120524e-08	5.776214e+01	7.365484e+02
1.680000e-06	8.064706e-06	1.120050e-08	5.772208e+01	7.364076e+02
1.690000e-06	8.056386e-06	1.119929e-08	5.766254e+01	7.361894e+02
1.700000e-06	8.045431e-06	1.119814e-08	5.758413e+01	7.358909e+02
1.710000e-06	8.031666e-06	1.119181e-08	5.748560e+01	7.355116e+02
1.720000e-06	8.015206e-06	1.117972e-08	5.736779e+01	7.350539e+02
1.730000e-06	7.996346e-06	1.117329e-08	5.723280e+01	7.345241e+02
1.740000e-06	7.974790e-06	1.115989e-08	5.707852e+01	7.339315e+02
1.750000e-06	7.949848e-06	1.113093e-08	5.690000e+01	7.332879e+02
1.760000e-06	7.921252e-06	1.113554e-08	5.669533e+01	7.326063e+02
1.770000e-06	7.889485e-06	1.114037e-08	5.646796e+01	7.318987e+02
1.780000e-06	7.855253e-06	1.112574e-08	5.622295e+01	7.311749e+02
1.790000e-06	7.818732e-06	1.110563e-08	5.596156e+01	7.304403e+02
1.800000e-06	7.779953e-06	1.112210e-08	5.568400e+01	7.296949e+02
1.810000e-06	7.738916e-06	1.108445e-08	5.539029e+01	7.289326e+02
1.820000e-06	7.695320e-06	1.107747e-08	5.507825e+01	7.281414e+02
1.830000e-06	7.649047e-06	1.110943e-08	5.474705e+01	7.273046e+02
1.840000e-06	7.599942e-06	1.105669e-08	5.439559e+01	7.264028e+02
1.850000e-06	7.547882e-06	1.107195e-08	5.402298e+01	7.254166e+02
1.860000e-06	7.492903e-06	1.103822e-08	5.362947e+01	7.243289e+02
1.870000e-06	7.435135e-06	1.103439e-08	5.321601e+01	7.231283e+02
1.880000e-06	7.374807e-06	1.102824e-08	5.278422e+01	7.218100e+02
1.890000e-06	7.311773e-06	1.097544e-08	5.233306e+01	7.203770e+02
1.900000e-06	7.245923e-06	1.098064e-08	5.186175e+01	7.188395e+02
1.910000e-06	7.177327e-06	1.091959e-08	5.137078e+01	7.172122e+02
1.920000e-06	7.106020e-06	1.091634e-08	5.086041e+01	7.155120e+02
1.930000e-06	7.032110e-06	1.089766e-08	5.033141e+01	7.137544e+02
1.940000e-06	6.955414e-06	1.087444e-08	4.978247e+01	7.119503e+02
1.950000e-06	6.876007e-06	1.084343e-08	4.921413e+01	7.101042e+02
1.960000e-06	6.794191e-06	1.078336e-08	4.862853e+01	7.082132e+02
1.970000e-06	6.709951e-06	1.079617e-08	4.802560e+01	7.062683e+02
1.980000e-06	6.623170e-06	1.075528e-08	4.740448e+01	7.042565e+02
1.990000e-06	6.533975e-06	1.072577e-08	4.676607e+01	7.021638e+02
2.000000e-06	6.442631e-06	1.067437e-08	4.611229e+01	6.999786e+02
2.010000e-06	6.348980e-06	1.064399e-08	4.544199e+01	6.976943e+02
2.020000e-06	6.253016e-06	1.061453e-08	4.475515e+01	6.953099e+02
2.030000e-06	6.154956e-06	1.057892e-08	4.405329e+01	6.928302e+02
2.040000e-06	6.054739e-06	1.055277e-08	4.333601e+01	6.902636e+02
2.050000e-06	5.952185e-06	1.049107e-08	4.260199e+01	6.876193e+02
2.060000e-06	5.847430e-06	1.045153e-08	4.185222e+01	6.849047e+02
2.070000e-06	5.740758e-06	1.041328e-08	4.108873e+01	6.821225e+02
2.080000e-06	5.632061e-06	1.038944e-08	4.031074e+01	6.792702e+02
2.090000e-06	5.521227e-06	1.033143e-08	3.951746e+01	6.763405e+02
2.100000e-06	5.408379e-06	1.027588e-08	3.870977e+01	6.733229e+02
2.110000e-06	5.293529e-06	1.023075e-08	3.788774e+01	6.702069e+02
2.120000e-06	5.176454e-06	1.019283e-08	3.704980e+01	6.669844e+02
2.130000e-06	5.057312e-06	1.014237e-08	3.619705e+01	6.636521e+02
2.140000e-06	4.936394e-06	1.008140e-08	3.533159e+01	6.602120e+02
2.150000e-06	4.813769e-06	1.002323e-08	3.445392e+01	6.566703e+02
2.160000e-06	4.689365e-06	9.965450e-09	3.356352e+01	6.530353e+02
2.170000e-06	4.563170e-06	9.917162e-09	3.266029e+01	6.493146e+02
2.180000e-06	4.435421e-06	9.864954e-09	3.174595e+01	6.455115e+02
2.190000e-06	4.306150e-06	9.806135e-09	3.082071e+01	6.416236e+02
2.200000e-06	4.175441e-06	9.735028e-09	2.988517e+01	6.376421e+02
2.210000e-06	4.043266e-06	9.675313e-09	2.893915e+01	6.335533e+02
2.220000e-06	3.909411e-06	9.618303e-09	2.798110e+01	6.293411e+02
2.230000e-06	3.774104e-06	9.556946e-09	2.701266e+01	6.249900e+02
2.240000e-06	3.637653e-06	9.482173e-09	2.603603e+01	6.204887e+02
2.250000e-06	3.499946e-06	9.406904e-09	2.505041e+01	6.158316e+02
2.260000e-06	3.360906e-06	9.336212e-09	2.405525e+01	6.110190e+02
2.270000e-06	3.220425e-06	9.266655e-09	2.304977e+01	6.060556e+02
2.280000e-06	3.078510e-06	9.190154e-09	2.203403e+01	6.009474e+02
2.290000e-06	2.935474e-06	9.107435e-09	2.101027e+01	5.956985e+02
2.300000e-06	2.791462e-06	9.023370e-09	1.997952e+01	5.903081e+02
2.310000e-06	2.646493e-06	8.939611e-09	1.894192e+01	5.847689e+02
2.320000e-06	2.500574e-06	8.857924e-09	1.789754e+01	5.790674e+02
2.330000e-06	2.353864e-06	8.770819e-09	1.684747e+01	5.731860e+02
2.340000e-06	2.206539e-06	8.675021e-09	1.579301e+01	5.671063e+02
2.350000e-06	2.058450e-06	8.573248e-09	1.473309e+01	5.608128e+02
2.360000e-06	1.909315e-06	8.474608e-09	1.366567e+01	5.542953e+02
2.370000e-06	1.759261e-06	8.377178e-09	1.259168e+01	5.475501e+02
2.380000e-06	1.608678e-06	8.274415e-09	1.151390e+01	5.405792e+02
2.390000e-06	1.457680e-06	8.164592e-09	1.043315e+01	5.333873e+02
2.400000e-06	1.306176e-06	8.051134e-09	9.348783e+00	5.259774e+02
2.410000e-06	1.154199e-06	7.935001e-09	8.261027e+00	5.183471e+02
2.420000e-06	1.001882e-06	7.816686e-09	7.170836e+00	5.104856e+02
2.430000e-06	8.493026e-07	7.693616e-09	6.078772e+00	5.023719e+02
2.440000e-06	6.964739e-07	7.563682e-09	4.984921e+00	4.939769e+02
2.450000e-06	5.433987e-07	7.426694e-09	3.889305e+00	4.852661e+02
2.460000e-06	3.901078e-07	7.286809e-09	2.792146e+00	4.762040e+02
2.470000e-06	2.366921e-07	7.147057e-09	1.694093e+00	4.667588e+02
2.480000e-06	8.321592e-08	6.999813e-09	5.956071e-01	4.569051e+02
2.490000e-06	-7.030023e-08	6.842329e-09	-5.031647e-01	4.466252e+02
2.500000e-06	-2.237127e-07	6.677974e-09	-1.601194e+00	4.359081e+02
2.510000e-06	-3.770194e-07	6.509113e-09	-2.698467e+00	4.247461e+02
2.520000e-06	-5.301666e-07	6.333280e-09	-3.794598e+00	4.131312e+02
2.530000e-06	-6.830890e-07	6.148226e-09	-4.889121e+00	4.010506e+02
2.540000e-06	-8.358136e-07	5.954035e-09	-5.982227e+00	3.884843e+02
2.550000e-06	-9.882609e-07	5.751869e-09	-7.073348e+00	3.754036e+02
2.560000e-06	-1.140364e-06	5.541537e-09	-8.162008e+00	3.617712e+02
2.570000e-06	-1.292063e-06	5.324151e-09	-9.247772e+00	3.475423e+02
2.580000e-06	-1.443310e-06	5.099075e-09	-1.033030e+01	3.326642e+02
2.590000e-06	-1.594081e-06	4.862184e-09	-1.140943e+01	3.170752e+02
2.600000e-06	-1.744373e-06	4.611486e-09	-1.248512e+01	3.007002e+02
2.610000e-06	-1.893982e-06	4.347439e-09	-1.355593e+01	2.834448e+02
2.620000e-06	-2.042741e-06	4.069786e-09	-1.462066e+01	2.651876e+02
2.630000e-06	-2.190654e-06	3.772526e-09	-1.567932e+01	2.457747e+02
2.640000e-06	-2.337750e-06	3.453521e-09	-1.673214e+01	2.250171e+02
2.650000e-06	-2.484024e-06	3.112059e-09	-1.777908e+01	2.026954e+02
2.660000e-06	-2.629442e-06	2.745188e-09	-1.881989e+01	1.785726e+02
2.670000e-06	-2.773991e-06	2.349289e-09	-1.985448e+01	1.524152e+02
2.680000e-06	-2.917587e-06	1.920137e-09	-2.088225e+01	1.240217e+02
2.690000e-06	-3.060167e-06	1.453832e-09	-2.190275e+01	9.325412e+01
2.700000e-06	-3.201565e-06	9.475716e-10	-2.291478e+01	6.007000e+01
2.710000e-06	-3.341531e-06	4.032871e-10	-2.391658e+01	2.454691e+01
2.720000e-06	-3.480109e-06	-1.721245e-10	-2.490843e+01	-1.310276e+01
2.730000e-06	-3.617429e-06	-7.731824e-10	-2.589127e+01	-5.253159e+01
2.740000e-06	-3.753499e-06	-1.396608e-09	-2.686518e+01	-9.327198e+01
2.750000e-06	-3.888319e-06	-2.032496e-09	-2.783014e+01	-1.347652e+02
2.760000e-06	-4.021702e-06	-2.670250e-09	-2.878481e+01	-1.764012e+02
2.770000e-06	-4.153493e-06	-3.298224e-09	-2.972808e+01	-2.175634e+02
2.780000e-06	-4.283790e-06	-3.911083e-09	-3.066067e+01	-2.576737e+02
2.790000e-06	-4.412679e-06	-4.503447e-09	-3.158318e+01	-2.962304e+02
2.800000e-06	-4.540143e-06	-5.066535e-09	-3.249548e+01	-3.328360e+02
2.810000e-06	-4.665965e-06	-5.596445e-09	-3.339604e+01	-3.672117e+02
2.820000e-06	-4.789978e-06	-6.086466e-09	-3.428364e+01	-3.991981e+02
2.830000e-06	-4.912254e-06	-6.539300e-09	-3.515882e+01	-4.287439e+02
2.840000e-06	-5.032826e-06	-6.956790e-09	-3.602179e+01	-4.558870e+02
2.850000e-06	-5.151602e-06	-7.339963e-09	-3.687192e+01	-4.807300e+02
2.860000e-06	-5.268235e-06	-7.689976e-09	-3.770670e+01	-5.034160e+02
2.870000e-06	-5.382657e-06	-8.007467e-09	-3.852567e+01	-5.241071e+02
2.880000e-06	-5.494974e-06	-8.297834e-09	-3.932956e+01	-5.429680e+02
2.890000e-06	-5.605116e-06	-8.561242e-09	-4.011788e+01	-5.601556e+02
2.900000e-06	-5.713283e-06	-8.799610e-09	-4.089207e+01	-5.758139e+02
2.910000e-06	-5.819610e-06	-9.018592e-09	-4.165310e+01	-5.900730e+02
2.920000e-06	-5.923993e-06	-9.220047e-09	-4.240020e+01	-6.030510e+02
2.930000e-06	-6.026146e-06	-9.401822e-09	-4.313136e+01	-6.148561e+02
2.940000e-06	-6.125942e-06	-9.564567e-09	-4.384563e+01	-6.255895e+02
