# Temperatura_=_20.0
# Concentracion g/m^3_=_7000.0
# C_Vs_to_Am_M_A/Vsm_=_65563218390.804596
# pendiente_HvsI_1/m_=_3716.3
# ordenada_HvsI_A/m_=_1297.0
# frecuencia_Hz_=_301454.90107388026

Tiempo_(s)	Campo_(V.s)	Magnetizacion_(V.s)	Campo_(kA/m)	Magnetizacion_(A/m)
0.000000e+00	-7.979433e-06	-6.653110e-09	-5.764847e+01	-4.347606e+02
1.000000e-08	-7.975122e-06	-6.645890e-09	-5.761733e+01	-4.346391e+02
2.000000e-08	-7.968267e-06	-6.638459e-09	-5.756780e+01	-4.344634e+02
3.000000e-08	-7.958716e-06	-6.635648e-09	-5.749880e+01	-4.342301e+02
4.000000e-08	-7.946318e-06	-6.633443e-09	-5.740923e+01	-4.339441e+02
5.000000e-08	-7.931018e-06	-6.622172e-09	-5.729869e+01	-4.336186e+02
6.000000e-08	-7.913006e-06	-6.583160e-09	-5.716857e+01	-4.332725e+02
7.000000e-08	-7.892592e-06	-6.556695e-09	-5.702108e+01	-4.329247e+02
8.000000e-08	-7.869436e-06	-6.656303e-09	-5.685379e+01	-4.325877e+02
9.000000e-08	-7.843144e-06	-6.694155e-09	-5.666384e+01	-4.322617e+02
1.000000e-07	-7.813831e-06	-6.639731e-09	-5.645206e+01	-4.319319e+02
1.100000e-07	-7.781705e-06	-6.614189e-09	-5.621996e+01	-4.315704e+02
1.200000e-07	-7.746782e-06	-6.620720e-09	-5.596766e+01	-4.311421e+02
1.300000e-07	-7.709463e-06	-6.544734e-09	-5.569804e+01	-4.306139e+02
1.400000e-07	-7.670179e-06	-6.498995e-09	-5.541423e+01	-4.299642e+02
1.500000e-07	-7.628364e-06	-6.661571e-09	-5.511213e+01	-4.291910e+02
1.600000e-07	-7.583631e-06	-6.473875e-09	-5.478895e+01	-4.283150e+02
1.700000e-07	-7.536286e-06	-6.437326e-09	-5.444690e+01	-4.273762e+02
1.800000e-07	-7.485968e-06	-6.551862e-09	-5.408337e+01	-4.264264e+02
1.900000e-07	-7.432552e-06	-6.443147e-09	-5.369746e+01	-4.255163e+02
2.000000e-07	-7.376322e-06	-6.456001e-09	-5.329122e+01	-4.246832e+02
2.100000e-07	-7.317433e-06	-6.410688e-09	-5.286577e+01	-4.239413e+02
2.200000e-07	-7.256033e-06	-6.431834e-09	-5.242217e+01	-4.232772e+02
2.300000e-07	-7.191959e-06	-6.423153e-09	-5.195927e+01	-4.226533e+02
2.400000e-07	-7.125204e-06	-6.401833e-09	-5.147698e+01	-4.220161e+02
2.500000e-07	-7.055909e-06	-6.425331e-09	-5.097636e+01	-4.213103e+02
2.600000e-07	-6.983966e-06	-6.368278e-09	-5.045659e+01	-4.204918e+02
2.700000e-07	-6.909277e-06	-6.360758e-09	-4.991699e+01	-4.195390e+02
2.800000e-07	-6.831976e-06	-6.345901e-09	-4.935852e+01	-4.184564e+02
2.900000e-07	-6.752028e-06	-6.376313e-09	-4.878093e+01	-4.172727e+02
3.000000e-07	-6.669578e-06	-6.341638e-09	-4.818525e+01	-4.160311e+02
3.100000e-07	-6.584947e-06	-6.256071e-09	-4.757382e+01	-4.147770e+02
3.200000e-07	-6.498146e-06	-6.287528e-09	-4.694672e+01	-4.135445e+02
3.300000e-07	-6.409037e-06	-6.279626e-09	-4.630294e+01	-4.123480e+02
3.400000e-07	-6.317573e-06	-6.266047e-09	-4.564215e+01	-4.111782e+02
3.500000e-07	-6.223896e-06	-6.229446e-09	-4.496536e+01	-4.100068e+02
3.600000e-07	-6.127988e-06	-6.205505e-09	-4.427246e+01	-4.087953e+02
3.700000e-07	-6.029710e-06	-6.177344e-09	-4.356244e+01	-4.075075e+02
3.800000e-07	-5.929200e-06	-6.160392e-09	-4.283629e+01	-4.061211e+02
3.900000e-07	-5.826676e-06	-6.173770e-09	-4.209560e+01	-4.046340e+02
4.000000e-07	-5.722116e-06	-6.143484e-09	-4.134019e+01	-4.030657e+02
4.100000e-07	-5.615380e-06	-6.103007e-09	-4.056906e+01	-4.014504e+02
4.200000e-07	-5.506637e-06	-6.063038e-09	-3.978343e+01	-3.998268e+02
4.300000e-07	-5.396087e-06	-6.074214e-09	-3.898475e+01	-3.982258e+02
4.400000e-07	-5.283483e-06	-6.072384e-09	-3.817122e+01	-3.966607e+02
4.500000e-07	-5.168596e-06	-6.029316e-09	-3.734121e+01	-3.951225e+02
4.600000e-07	-5.051643e-06	-5.975821e-09	-3.649626e+01	-3.935820e+02
4.700000e-07	-4.932976e-06	-5.949685e-09	-3.563894e+01	-3.919984e+02
4.800000e-07	-4.812555e-06	-5.942964e-09	-3.476895e+01	-3.903313e+02
4.900000e-07	-4.690271e-06	-5.919373e-09	-3.388549e+01	-3.885526e+02
5.000000e-07	-4.566286e-06	-5.889424e-09	-3.298974e+01	-3.866557e+02
5.100000e-07	-4.440715e-06	-5.842349e-09	-3.208254e+01	-3.846570e+02
5.200000e-07	-4.313578e-06	-5.799992e-09	-3.116402e+01	-3.825919e+02
5.300000e-07	-4.184897e-06	-5.783408e-09	-3.023435e+01	-3.805040e+02
5.400000e-07	-4.054613e-06	-5.787056e-09	-2.929309e+01	-3.784320e+02
5.500000e-07	-3.922808e-06	-5.755989e-09	-2.834085e+01	-3.763982e+02
5.600000e-07	-3.789685e-06	-5.688528e-09	-2.737908e+01	-3.744012e+02
5.700000e-07	-3.655275e-06	-5.644634e-09	-2.640802e+01	-3.724159e+02
5.800000e-07	-3.519603e-06	-5.636413e-09	-2.542784e+01	-3.704007e+02
5.900000e-07	-3.382692e-06	-5.626855e-09	-2.443871e+01	-3.683091e+02
6.000000e-07	-3.244452e-06	-5.586162e-09	-2.343998e+01	-3.661035e+02
6.100000e-07	-3.104825e-06	-5.535779e-09	-2.243122e+01	-3.637658e+02
6.200000e-07	-2.963888e-06	-5.491643e-09	-2.141300e+01	-3.613022e+02
6.300000e-07	-2.821693e-06	-5.461047e-09	-2.038570e+01	-3.587409e+02
6.400000e-07	-2.678320e-06	-5.440634e-09	-1.934988e+01	-3.561231e+02
6.500000e-07	-2.533949e-06	-5.404396e-09	-1.830685e+01	-3.534893e+02
6.600000e-07	-2.388669e-06	-5.340474e-09	-1.725726e+01	-3.508666e+02
6.700000e-07	-2.242550e-06	-5.280375e-09	-1.620160e+01	-3.482600e+02
6.800000e-07	-2.095705e-06	-5.255456e-09	-1.514070e+01	-3.456498e+02
6.900000e-07	-1.948190e-06	-5.236256e-09	-1.407496e+01	-3.429972e+02
7.000000e-07	-1.800087e-06	-5.192071e-09	-1.300497e+01	-3.402564e+02
7.100000e-07	-1.651480e-06	-5.130158e-09	-1.193133e+01	-3.373877e+02
7.200000e-07	-1.502333e-06	-5.076471e-09	-1.085380e+01	-3.343698e+02
7.300000e-07	-1.352626e-06	-5.039237e-09	-9.772227e+00	-3.312058e+02
7.400000e-07	-1.202431e-06	-5.007779e-09	-8.687120e+00	-3.279215e+02
7.500000e-07	-1.051862e-06	-4.964922e-09	-7.599316e+00	-3.245554e+02
7.600000e-07	-9.009965e-07	-4.896023e-09	-6.509369e+00	-3.211443e+02
7.700000e-07	-7.498109e-07	-4.825156e-09	-5.417108e+00	-3.177082e+02
7.800000e-07	-5.983000e-07	-4.777100e-09	-4.322498e+00	-3.142392e+02
7.900000e-07	-4.465779e-07	-4.742231e-09	-3.226361e+00	-3.106989e+02
8.000000e-07	-2.947519e-07	-4.689102e-09	-2.129474e+00	-3.070247e+02
8.100000e-07	-1.428514e-07	-4.612045e-09	-1.032049e+00	-3.031442e+02
8.200000e-07	9.064906e-09	-4.534495e-09	6.549062e-02	-2.989936e+02
8.300000e-07	1.609702e-07	-4.473711e-09	1.162950e+00	-2.945348e+02
8.400000e-07	3.128576e-07	-4.419448e-09	2.260281e+00	-2.897657e+02
8.500000e-07	4.645900e-07	-4.349744e-09	3.356492e+00	-2.847203e+02
8.600000e-07	6.161082e-07	-4.261000e-09	4.451156e+00	-2.794587e+02
8.700000e-07	7.674224e-07	-4.163764e-09	5.544345e+00	-2.740486e+02
8.800000e-07	9.184917e-07	-4.082557e-09	6.635766e+00	-2.685435e+02
8.900000e-07	1.069273e-06	-4.015438e-09	7.725105e+00	-2.629650e+02
9.000000e-07	1.219632e-06	-3.935807e-09	8.811394e+00	-2.572930e+02
9.100000e-07	1.369524e-06	-3.832429e-09	9.894311e+00	-2.514681e+02
9.200000e-07	1.518955e-06	-3.725871e-09	1.097389e+01	-2.454040e+02
9.300000e-07	1.667899e-06	-3.635392e-09	1.204996e+01	-2.390069e+02
9.400000e-07	1.816321e-06	-3.549918e-09	1.312225e+01	-2.321937e+02
9.500000e-07	1.964075e-06	-3.449518e-09	1.418972e+01	-2.249031e+02
9.600000e-07	2.111153e-06	-3.321326e-09	1.525231e+01	-2.170921e+02
9.700000e-07	2.257644e-06	-3.181368e-09	1.631065e+01	-2.087176e+02
9.800000e-07	2.403333e-06	-3.047311e-09	1.736320e+01	-1.997053e+02
9.900000e-07	2.548008e-06	-2.910510e-09	1.840842e+01	-1.899144e+02
1.000000e-06	2.691748e-06	-2.750345e-09	1.944689e+01	-1.791076e+02
1.010000e-06	2.834558e-06	-2.550458e-09	2.047864e+01	-1.669391e+02
1.020000e-06	2.976284e-06	-2.320539e-09	2.150256e+01	-1.529674e+02
1.030000e-06	3.116900e-06	-2.071383e-09	2.251846e+01	-1.366980e+02
1.040000e-06	3.256348e-06	-1.792577e-09	2.352592e+01	-1.176511e+02
1.050000e-06	3.394562e-06	-1.461046e-09	2.452447e+01	-9.544470e+01
1.060000e-06	3.531352e-06	-1.065790e-09	2.551272e+01	-6.987823e+01
1.070000e-06	3.666718e-06	-6.159159e-10	2.649069e+01	-4.099924e+01
1.080000e-06	3.800838e-06	-1.269728e-10	2.745966e+01	-9.139048e+00
1.090000e-06	3.933662e-06	3.885027e-10	2.841926e+01	2.509262e+01
1.100000e-06	4.065112e-06	9.316720e-10	2.936894e+01	6.085563e+01
1.110000e-06	4.195120e-06	1.493269e-09	3.030820e+01	9.716344e+01
1.120000e-06	4.323550e-06	2.050630e-09	3.123606e+01	1.329892e+02
1.130000e-06	4.450428e-06	2.572991e-09	3.215271e+01	1.673760e+02
1.140000e-06	4.575879e-06	3.048358e-09	3.305904e+01	1.995327e+02
1.150000e-06	4.699795e-06	3.481152e-09	3.395429e+01	2.289003e+02
1.160000e-06	4.822004e-06	3.877616e-09	3.483721e+01	2.551791e+02
1.170000e-06	4.942338e-06	4.233474e-09	3.570658e+01	2.783173e+02
1.180000e-06	5.060866e-06	4.540438e-09	3.656290e+01	2.984656e+02
1.190000e-06	5.177600e-06	4.800498e-09	3.740626e+01	3.159121e+02
1.200000e-06	5.292317e-06	5.025326e-09	3.823505e+01	3.310106e+02
1.210000e-06	5.404881e-06	5.227948e-09	3.904828e+01	3.441165e+02
1.220000e-06	5.515435e-06	5.408865e-09	3.984699e+01	3.555422e+02
1.230000e-06	5.624197e-06	5.563175e-09	4.063276e+01	3.655341e+02
1.240000e-06	5.731080e-06	5.688408e-09	4.140495e+01	3.742721e+02
1.250000e-06	5.835793e-06	5.794401e-09	4.216146e+01	3.818856e+02
1.260000e-06	5.938326e-06	5.890766e-09	4.290223e+01	3.884766e+02
1.270000e-06	6.038807e-06	5.979002e-09	4.362816e+01	3.941420e+02
1.280000e-06	6.137103e-06	6.053940e-09	4.433832e+01	3.989885e+02
1.290000e-06	6.233057e-06	6.113740e-09	4.503155e+01	4.031366e+02
1.300000e-06	6.326792e-06	6.162913e-09	4.570875e+01	4.067149e+02
1.310000e-06	6.418392e-06	6.210632e-09	4.637053e+01	4.098471e+02
1.320000e-06	6.507677e-06	6.258990e-09	4.701558e+01	4.126380e+02
1.330000e-06	6.594660e-06	6.301171e-09	4.764400e+01	4.151635e+02
1.340000e-06	6.679435e-06	6.331397e-09	4.825647e+01	4.174664e+02
1.350000e-06	6.761904e-06	6.354773e-09	4.885227e+01	4.195612e+02
1.360000e-06	6.841900e-06	6.379617e-09	4.943021e+01	4.214442e+02
1.370000e-06	6.919363e-06	6.406389e-09	4.998986e+01	4.231070e+02
1.380000e-06	6.994212e-06	6.430030e-09	5.053061e+01	4.245487e+02
1.390000e-06	7.066433e-06	6.446375e-09	5.105238e+01	4.257831e+02
1.400000e-06	7.136222e-06	6.458862e-09	5.155658e+01	4.268408e+02
1.410000e-06	7.203513e-06	6.472472e-09	5.204274e+01	4.277638e+02
1.420000e-06	7.268123e-06	6.489660e-09	5.250952e+01	4.285973e+02
1.430000e-06	7.330219e-06	6.506948e-09	5.295814e+01	4.293800e+02
1.440000e-06	7.389871e-06	6.518470e-09	5.338910e+01	4.301361e+02
1.450000e-06	7.446877e-06	6.526125e-09	5.380095e+01	4.308723e+02
1.460000e-06	7.501162e-06	6.534260e-09	5.419314e+01	4.315796e+02
1.470000e-06	7.552467e-06	6.545621e-09	5.456380e+01	4.322387e+02
1.480000e-06	7.600660e-06	6.556108e-09	5.491198e+01	4.328286e+02
1.490000e-06	7.646131e-06	6.562078e-09	5.524049e+01	4.333334e+02
1.500000e-06	7.688980e-06	6.565994e-09	5.555006e+01	4.337479e+02
1.510000e-06	7.729015e-06	6.571222e-09	5.583930e+01	4.340788e+02
1.520000e-06	7.766362e-06	6.580303e-09	5.610911e+01	4.343419e+02
1.530000e-06	7.801037e-06	6.588900e-09	5.635963e+01	4.345575e+02
1.540000e-06	7.832927e-06	6.594002e-09	5.659002e+01	4.347447e+02
1.550000e-06	7.862170e-06	6.596195e-09	5.680130e+01	4.349166e+02
1.560000e-06	7.888680e-06	6.597629e-09	5.699282e+01	4.350789e+02
1.570000e-06	7.912261e-06	6.601160e-09	5.716318e+01	4.352300e+02
1.580000e-06	7.933119e-06	6.605531e-09	5.731387e+01	4.353643e+02
1.590000e-06	7.951303e-06	6.607468e-09	5.744525e+01	4.354753e+02
1.600000e-06	7.966580e-06	6.606951e-09	5.755562e+01	4.355590e+02
1.610000e-06	7.978794e-06	6.608064e-09	5.764386e+01	4.356148e+02
1.620000e-06	7.987896e-06	6.611915e-09	5.770962e+01	4.356448e+02
1.630000e-06	7.994097e-06	6.616680e-09	5.775441e+01	4.356512e+02
1.640000e-06	7.997586e-06	6.619985e-09	5.777962e+01	4.356340e+02
1.650000e-06	7.998297e-06	6.622252e-09	5.778476e+01	4.355886e+02
1.660000e-06	7.996315e-06	6.613150e-09	5.777044e+01	4.355066e+02
1.670000e-06	7.991676e-06	6.613308e-09	5.773692e+01	4.353778e+02
1.680000e-06	7.984282e-06	6.615625e-09	5.768350e+01	4.351937e+02
1.690000e-06	7.974238e-06	6.614325e-09	5.761094e+01	4.349522e+02
1.700000e-06	7.961417e-06	6.615278e-09	5.751832e+01	4.346594e+02
1.710000e-06	7.945850e-06	6.632572e-09	5.740585e+01	4.343296e+02
1.720000e-06	7.927922e-06	6.677809e-09	5.727633e+01	4.339820e+02
1.730000e-06	7.907515e-06	6.573258e-09	5.712890e+01	4.336352e+02
1.740000e-06	7.883869e-06	6.498098e-09	5.695806e+01	4.332999e+02
1.750000e-06	7.856530e-06	6.541496e-09	5.676054e+01	4.329745e+02
1.760000e-06	7.825913e-06	6.541637e-09	5.653935e+01	4.326420e+02
1.770000e-06	7.792764e-06	6.520431e-09	5.629986e+01	4.322730e+02
1.780000e-06	7.757535e-06	6.642038e-09	5.604535e+01	4.318322e+02
1.790000e-06	7.720124e-06	6.600110e-09	5.577506e+01	4.312874e+02
1.800000e-06	7.680254e-06	6.445688e-09	5.548701e+01	4.306195e+02
1.810000e-06	7.637826e-06	6.636833e-09	5.518049e+01	4.298297e+02
1.820000e-06	7.592868e-06	6.530516e-09	5.485569e+01	4.289417e+02
1.830000e-06	7.545124e-06	6.543823e-09	5.451075e+01	4.279980e+02
1.840000e-06	7.494491e-06	6.584486e-09	5.414495e+01	4.270508e+02
1.850000e-06	7.440986e-06	6.441916e-09	5.375839e+01	4.261497e+02
1.860000e-06	7.384481e-06	6.590013e-09	5.335017e+01	4.253292e+02
1.870000e-06	7.325400e-06	6.496047e-09	5.292333e+01	4.245998e+02
1.880000e-06	7.263732e-06	6.546457e-09	5.247780e+01	4.239441e+02
1.890000e-06	7.199250e-06	6.495479e-09	5.201194e+01	4.233216e+02
1.900000e-06	7.132107e-06	6.393991e-09	5.152686e+01	4.226777e+02
1.910000e-06	7.062262e-06	6.521484e-09	5.102225e+01	4.219580e+02
1.920000e-06	6.989862e-06	6.461399e-09	5.049919e+01	4.211209e+02
1.930000e-06	6.914846e-06	6.498704e-09	4.995722e+01	4.201485e+02
1.940000e-06	6.836987e-06	6.353636e-09	4.939472e+01	4.190492e+02
1.950000e-06	6.756546e-06	6.364279e-09	4.881356e+01	4.178542e+02
1.960000e-06	6.673857e-06	6.424290e-09	4.821617e+01	4.166080e+02
1.970000e-06	6.588831e-06	6.365553e-09	4.760189e+01	4.153551e+02
1.980000e-06	6.501264e-06	6.392126e-09	4.696925e+01	4.141273e+02
1.990000e-06	6.411419e-06	6.287239e-09	4.632015e+01	4.129355e+02
2.000000e-06	6.319448e-06	6.308655e-09	4.565569e+01	4.117675e+02
2.010000e-06	6.225173e-06	6.287674e-09	4.497459e+01	4.105927e+02
2.020000e-06	6.128625e-06	6.328534e-09	4.427706e+01	4.093721e+02
2.030000e-06	6.030050e-06	6.280472e-09	4.356490e+01	4.080710e+02
2.040000e-06	5.929292e-06	6.195118e-09	4.283696e+01	4.066697e+02
2.050000e-06	5.826194e-06	6.173315e-09	4.209211e+01	4.051693e+02
2.060000e-06	5.721061e-06	6.179337e-09	4.133257e+01	4.035918e+02
2.070000e-06	5.614077e-06	6.210196e-09	4.055965e+01	4.019728e+02
2.080000e-06	5.505163e-06	6.131450e-09	3.977278e+01	4.003508e+02
2.090000e-06	5.394109e-06	6.079507e-09	3.897046e+01	3.987545e+02
2.100000e-06	5.280991e-06	6.044789e-09	3.815322e+01	3.971942e+02
2.110000e-06	5.165919e-06	6.073882e-09	3.732187e+01	3.956576e+02
2.120000e-06	5.048733e-06	6.065646e-09	3.647525e+01	3.941135e+02
2.130000e-06	4.929500e-06	6.029930e-09	3.561383e+01	3.925201e+02
2.140000e-06	4.808474e-06	5.966056e-09	3.473946e+01	3.908382e+02
2.150000e-06	4.685830e-06	5.923684e-09	3.385340e+01	3.890424e+02
2.160000e-06	4.561585e-06	5.929069e-09	3.295578e+01	3.871292e+02
2.170000e-06	4.435650e-06	5.940816e-09	3.204594e+01	3.851185e+02
2.180000e-06	4.308037e-06	5.899486e-09	3.112398e+01	3.830473e+02
2.190000e-06	4.178904e-06	5.810548e-09	3.019105e+01	3.809594e+02
2.200000e-06	4.048402e-06	5.771022e-09	2.924822e+01	3.788918e+02
2.210000e-06	3.916542e-06	5.780915e-09	2.829558e+01	3.768638e+02
2.220000e-06	3.783185e-06	5.784184e-09	2.733212e+01	3.748704e+02
2.230000e-06	3.648357e-06	5.724687e-09	2.635804e+01	3.728835e+02
2.240000e-06	3.512255e-06	5.652820e-09	2.537475e+01	3.708600e+02
2.250000e-06	3.374983e-06	5.605500e-09	2.438302e+01	3.687539e+02
2.260000e-06	3.236491e-06	5.598159e-09	2.338246e+01	3.665299e+02
2.270000e-06	3.096768e-06	5.593883e-09	2.237301e+01	3.641731e+02
2.280000e-06	2.955760e-06	5.554154e-09	2.135428e+01	3.616932e+02
2.290000e-06	2.813493e-06	5.475041e-09	2.032646e+01	3.591211e+02
2.300000e-06	2.670119e-06	5.419604e-09	1.929063e+01	3.564985e+02
2.310000e-06	2.525772e-06	5.418980e-09	1.824777e+01	3.538650e+02
2.320000e-06	2.380621e-06	5.417814e-09	1.719911e+01	3.512448e+02
2.330000e-06	2.234688e-06	5.363694e-09	1.614480e+01	3.486392e+02
2.340000e-06	2.088075e-06	5.280145e-09	1.508557e+01	3.460255e+02
2.350000e-06	1.940844e-06	5.226865e-09	1.402188e+01	3.433630e+02
2.360000e-06	1.792916e-06	5.210479e-09	1.295316e+01	3.406059e+02
2.370000e-06	1.644288e-06	5.192707e-09	1.187937e+01	3.377165e+02
2.380000e-06	1.495096e-06	5.141890e-09	1.080152e+01	3.346768e+02
2.390000e-06	1.345346e-06	5.061418e-09	9.719632e+00	3.314935e+02
2.400000e-06	1.194963e-06	4.993805e-09	8.633170e+00	3.281949e+02
2.410000e-06	1.044091e-06	4.968090e-09	7.543176e+00	3.248202e+02
2.420000e-06	8.928299e-07	4.951409e-09	6.450368e+00	3.214048e+02
2.430000e-06	7.412568e-07	4.895537e-09	5.355308e+00	3.179650e+02
2.440000e-06	5.895198e-07	4.805147e-09	4.259064e+00	3.144887e+02
2.450000e-06	4.376073e-07	4.733468e-09	3.161552e+00	3.109334e+02
2.460000e-06	2.855038e-07	4.698450e-09	2.062660e+00	3.072340e+02
2.470000e-06	1.332578e-07	4.666169e-09	9.627386e-01	3.033183e+02
2.480000e-06	-1.898064e-08	4.602265e-09	-1.371282e-01	2.991251e+02
2.490000e-06	-1.711307e-07	4.507353e-09	-1.236356e+00	2.946210e+02
2.500000e-06	-3.232182e-07	4.417806e-09	-2.335133e+00	2.898094e+02
2.510000e-06	-4.752284e-07	4.358526e-09	-3.433351e+00	2.847289e+02
2.520000e-06	-6.271058e-07	4.308417e-09	-4.530609e+00	2.794420e+02
2.530000e-06	-7.786947e-07	4.229613e-09	-5.625784e+00	2.740155e+02
2.540000e-06	-9.299833e-07	4.116608e-09	-6.718788e+00	2.684993e+02
2.550000e-06	-1.080956e-06	4.009921e-09	-7.809513e+00	2.629096e+02
2.560000e-06	-1.231570e-06	3.933508e-09	-8.897644e+00	2.572201e+02
2.570000e-06	-1.381794e-06	3.863371e-09	-9.982955e+00	2.513665e+02
2.580000e-06	-1.531366e-06	3.769804e-09	-1.106356e+01	2.452604e+02
2.590000e-06	-1.680180e-06	3.648548e-09	-1.213869e+01	2.388083e+02
2.600000e-06	-1.828292e-06	3.526036e-09	-1.320874e+01	2.319300e+02
2.610000e-06	-1.975715e-06	3.426658e-09	-1.427382e+01	2.245673e+02
2.620000e-06	-2.122538e-06	3.335056e-09	-1.533456e+01	2.166786e+02
2.630000e-06	-2.268668e-06	3.215786e-09	-1.639029e+01	2.082186e+02
2.640000e-06	-2.414067e-06	3.058094e-09	-1.744074e+01	1.991055e+02
2.650000e-06	-2.558661e-06	2.888324e-09	-1.848539e+01	1.891864e+02
2.660000e-06	-2.702296e-06	2.726517e-09	-1.952309e+01	1.782087e+02
2.670000e-06	-2.844983e-06	2.553333e-09	-2.055396e+01	1.658112e+02
2.680000e-06	-2.986482e-06	2.336528e-09	-2.157623e+01	1.515419e+02
2.690000e-06	-3.126659e-06	2.066220e-09	-2.258896e+01	1.349036e+02
2.700000e-06	-3.265601e-06	1.758898e-09	-2.359277e+01	1.154252e+02
2.710000e-06	-3.403348e-06	1.426993e-09	-2.458794e+01	9.274580e+01
2.720000e-06	-3.539945e-06	1.057586e-09	-2.557480e+01	6.669665e+01
2.730000e-06	-3.675332e-06	6.249773e-10	-2.655292e+01	3.736460e+01
2.740000e-06	-3.809370e-06	1.211630e-10	-2.752130e+01	5.122075e+00
2.750000e-06	-3.941887e-06	-4.237769e-10	-2.847869e+01	-2.938439e+01
2.760000e-06	-4.072983e-06	-9.738165e-10	-2.942581e+01	-6.528793e+01
2.770000e-06	-4.202751e-06	-1.518415e-09	-3.036333e+01	-1.015894e+02
2.780000e-06	-4.331125e-06	-2.063176e-09	-3.129079e+01	-1.372654e+02
2.790000e-06	-4.458065e-06	-2.599117e-09	-3.220788e+01	-1.713773e+02
2.800000e-06	-4.583313e-06	-3.095552e-09	-3.311275e+01	-2.031640e+02
2.810000e-06	-4.706826e-06	-3.531087e-09	-3.400509e+01	-2.321028e+02
2.820000e-06	-4.828799e-06	-3.908568e-09	-3.488630e+01	-2.579309e+02
2.830000e-06	-4.949056e-06	-4.249053e-09	-3.575511e+01	-2.806288e+02
2.840000e-06	-5.067309e-06	-4.565527e-09	-3.660944e+01	-3.003714e+02
2.850000e-06	-5.183480e-06	-4.847687e-09	-3.744874e+01	-3.174603e+02
2.860000e-06	-5.297592e-06	-5.081278e-09	-3.827316e+01	-3.322531e+02
2.870000e-06	-5.409570e-06	-5.270340e-09	-3.908216e+01	-3.451014e+02
2.880000e-06	-5.519422e-06	-5.437871e-09	-3.987580e+01	-3.563090e+02
2.890000e-06	-5.627400e-06	-5.595634e-09	-4.065590e+01	-3.661122e+02
2.900000e-06	-5.733569e-06	-5.736574e-09	-4.142293e+01	-3.746827e+02
2.910000e-06	-5.837763e-06	-5.848663e-09	-4.217569e+01	-3.821444e+02
2.920000e-06	-5.939734e-06	-5.935550e-09	-4.291240e+01	-3.885973e+02
2.930000e-06	-6.039490e-06	-6.014100e-09	-4.363310e+01	-3.941390e+02
2.940000e-06	-6.137286e-06	-6.094305e-09	-4.433964e+01	-3.988781e+02
