# Temperatura_=_20.0
# Concentracion g/m^3_=_7000.0
# C_Vs_to_Am_M_A/Vsm_=_65563218390.804596
# pendiente_HvsI_1/m_=_3716.3
# ordenada_HvsI_A/m_=_1297.0
# frecuencia_Hz_=_301423.5698395426

Tiempo_(s)	Campo_(V.s)	Magnetizacion_(V.s)	Campo_(kA/m)	Magnetizacion_(A/m)
0.000000e+00	-8.073844e-06	-8.883284e-09	-5.767050e+01	-5.807409e+02
1.000000e-08	-8.071100e-06	-8.880591e-09	-5.765090e+01	-5.805276e+02
2.000000e-08	-8.065716e-06	-8.870458e-09	-5.761245e+01	-5.802746e+02
3.000000e-08	-8.057750e-06	-8.867001e-09	-5.755555e+01	-5.799976e+02
4.000000e-08	-8.046951e-06	-8.868005e-09	-5.747841e+01	-5.797097e+02
5.000000e-08	-8.033198e-06	-8.863959e-09	-5.738017e+01	-5.794198e+02
6.000000e-08	-8.016563e-06	-8.849312e-09	-5.726136e+01	-5.791308e+02
7.000000e-08	-7.997395e-06	-8.811715e-09	-5.712444e+01	-5.788398e+02
8.000000e-08	-7.975741e-06	-8.839284e-09	-5.696976e+01	-5.785387e+02
9.000000e-08	-7.951098e-06	-8.910360e-09	-5.679375e+01	-5.782152e+02
1.000000e-07	-7.923242e-06	-8.888034e-09	-5.659477e+01	-5.778545e+02
1.100000e-07	-7.892376e-06	-8.842469e-09	-5.637430e+01	-5.774410e+02
1.200000e-07	-7.858655e-06	-8.841981e-09	-5.613343e+01	-5.769602e+02
1.300000e-07	-7.822311e-06	-8.846018e-09	-5.587383e+01	-5.764019e+02
1.400000e-07	-7.783878e-06	-8.752510e-09	-5.559931e+01	-5.757614e+02
1.500000e-07	-7.743183e-06	-8.805763e-09	-5.530863e+01	-5.750426e+02
1.600000e-07	-7.699643e-06	-8.834332e-09	-5.499763e+01	-5.742579e+02
1.700000e-07	-7.653360e-06	-8.640648e-09	-5.466704e+01	-5.734283e+02
1.800000e-07	-7.604259e-06	-8.743330e-09	-5.431632e+01	-5.725801e+02
1.900000e-07	-7.552056e-06	-8.729212e-09	-5.394344e+01	-5.717414e+02
2.000000e-07	-7.496962e-06	-8.660129e-09	-5.354990e+01	-5.709365e+02
2.100000e-07	-7.439107e-06	-8.674150e-09	-5.313666e+01	-5.701811e+02
2.200000e-07	-7.378583e-06	-8.618205e-09	-5.270434e+01	-5.694782e+02
2.300000e-07	-7.315383e-06	-8.683995e-09	-5.225291e+01	-5.688169e+02
2.400000e-07	-7.249450e-06	-8.651971e-09	-5.178195e+01	-5.681741e+02
2.500000e-07	-7.180921e-06	-8.649571e-09	-5.129246e+01	-5.675189e+02
2.600000e-07	-7.109746e-06	-8.618032e-09	-5.078407e+01	-5.668193e+02
2.700000e-07	-7.035800e-06	-8.594807e-09	-5.025588e+01	-5.660488e+02
2.800000e-07	-6.959095e-06	-8.592380e-09	-4.970799e+01	-5.651925e+02
2.900000e-07	-6.879716e-06	-8.587530e-09	-4.914099e+01	-5.642495e+02
3.000000e-07	-6.797814e-06	-8.617565e-09	-4.855598e+01	-5.632326e+02
3.100000e-07	-6.713575e-06	-8.515442e-09	-4.795427e+01	-5.621640e+02
3.200000e-07	-6.627129e-06	-8.493584e-09	-4.733679e+01	-5.610687e+02
3.300000e-07	-6.538374e-06	-8.530062e-09	-4.670283e+01	-5.599675e+02
3.400000e-07	-6.447304e-06	-8.523177e-09	-4.605233e+01	-5.588715e+02
3.500000e-07	-6.353962e-06	-8.489780e-09	-4.538559e+01	-5.577785e+02
3.600000e-07	-6.258295e-06	-8.450711e-09	-4.470226e+01	-5.566747e+02
3.700000e-07	-6.160339e-06	-8.431872e-09	-4.400257e+01	-5.555382e+02
3.800000e-07	-6.060105e-06	-8.412359e-09	-4.328661e+01	-5.543460e+02
3.900000e-07	-5.957654e-06	-8.428960e-09	-4.255481e+01	-5.530803e+02
4.000000e-07	-5.853060e-06	-8.415608e-09	-4.180771e+01	-5.517338e+02
4.100000e-07	-5.746427e-06	-8.372686e-09	-4.104604e+01	-5.503111e+02
4.200000e-07	-5.637769e-06	-8.322698e-09	-4.026991e+01	-5.488272e+02
4.300000e-07	-5.527031e-06	-8.319784e-09	-3.947893e+01	-5.473019e+02
4.400000e-07	-5.414174e-06	-8.338526e-09	-3.867280e+01	-5.457535e+02
4.500000e-07	-5.299237e-06	-8.313197e-09	-3.785182e+01	-5.441920e+02
4.600000e-07	-5.182313e-06	-8.248635e-09	-3.701664e+01	-5.426161e+02
4.700000e-07	-5.063432e-06	-8.206593e-09	-3.616749e+01	-5.410122e+02
4.800000e-07	-4.942656e-06	-8.200812e-09	-3.530480e+01	-5.393586e+02
4.900000e-07	-4.820049e-06	-8.191411e-09	-3.442904e+01	-5.376323e+02
5.000000e-07	-4.695758e-06	-8.162917e-09	-3.354124e+01	-5.358155e+02
5.100000e-07	-4.569844e-06	-8.111283e-09	-3.264185e+01	-5.339021e+02
5.200000e-07	-4.442211e-06	-8.059917e-09	-3.173018e+01	-5.319003e+02
5.300000e-07	-4.312951e-06	-8.032114e-09	-3.080689e+01	-5.298302e+02
5.400000e-07	-4.182197e-06	-8.038399e-09	-2.987293e+01	-5.277186e+02
5.500000e-07	-4.049970e-06	-8.024090e-09	-2.892845e+01	-5.255909e+02
5.600000e-07	-3.916315e-06	-7.965236e-09	-2.797377e+01	-5.234626e+02
5.700000e-07	-3.781168e-06	-7.904890e-09	-2.700843e+01	-5.213342e+02
5.800000e-07	-3.644487e-06	-7.887757e-09	-2.603214e+01	-5.191894e+02
5.900000e-07	-3.506487e-06	-7.886254e-09	-2.504642e+01	-5.169988e+02
6.000000e-07	-3.367225e-06	-7.853487e-09	-2.405169e+01	-5.147275e+02
6.100000e-07	-3.226621e-06	-7.796125e-09	-2.304737e+01	-5.123445e+02
6.200000e-07	-3.084682e-06	-7.740770e-09	-2.203352e+01	-5.098311e+02
6.300000e-07	-2.941457e-06	-7.705845e-09	-2.101048e+01	-5.071862e+02
6.400000e-07	-2.797148e-06	-7.682736e-09	-1.997970e+01	-5.044262e+02
6.500000e-07	-2.651962e-06	-7.655057e-09	-1.894265e+01	-5.015799e+02
6.600000e-07	-2.505884e-06	-7.594407e-09	-1.789923e+01	-4.986793e+02
6.700000e-07	-2.358821e-06	-7.523401e-09	-1.684878e+01	-4.957496e+02
6.800000e-07	-2.210928e-06	-7.482332e-09	-1.579240e+01	-4.928004e+02
6.900000e-07	-2.062335e-06	-7.464522e-09	-1.473101e+01	-4.898222e+02
7.000000e-07	-1.913072e-06	-7.427987e-09	-1.366485e+01	-4.867880e+02
7.100000e-07	-1.763225e-06	-7.360758e-09	-1.259451e+01	-4.836608e+02
7.200000e-07	-1.612787e-06	-7.294612e-09	-1.151994e+01	-4.804039e+02
7.300000e-07	-1.461606e-06	-7.244827e-09	-1.044008e+01	-4.769914e+02
7.400000e-07	-1.309769e-06	-7.208927e-09	-9.355525e+00	-4.734157e+02
7.500000e-07	-1.157560e-06	-7.164932e-09	-8.268313e+00	-4.696888e+02
7.600000e-07	-1.005040e-06	-7.098816e-09	-7.178877e+00	-4.658377e+02
7.700000e-07	-8.521588e-07	-7.017887e-09	-6.086869e+00	-4.618933e+02
7.800000e-07	-6.989370e-07	-6.954457e-09	-4.992423e+00	-4.578784e+02
7.900000e-07	-5.454651e-07	-6.913278e-09	-3.896192e+00	-4.537954e+02
8.000000e-07	-3.918063e-07	-6.861886e-09	-2.798625e+00	-4.496210e+02
8.100000e-07	-2.380082e-07	-6.782337e-09	-1.700064e+00	-4.453065e+02
8.200000e-07	-8.412632e-08	-6.689139e-09	-6.009043e-01	-4.407872e+02
8.300000e-07	6.976610e-08	-6.612481e-09	4.983309e-01	-4.359966e+02
8.400000e-07	2.236425e-07	-6.549855e-09	1.597452e+00	-4.308823e+02
8.500000e-07	3.774838e-07	-6.480057e-09	2.696322e+00	-4.254192e+02
8.600000e-07	5.311408e-07	-6.386773e-09	3.793875e+00	-4.196150e+02
8.700000e-07	6.845573e-07	-6.279503e-09	4.889711e+00	-4.135069e+02
8.800000e-07	8.377427e-07	-6.179375e-09	5.983896e+00	-4.071494e+02
8.900000e-07	9.906145e-07	-6.096283e-09	7.075841e+00	-4.005952e+02
9.000000e-07	1.143151e-06	-6.011705e-09	8.165392e+00	-3.938770e+02
9.100000e-07	1.295306e-06	-5.898552e-09	9.252216e+00	-3.869918e+02
9.200000e-07	1.447009e-06	-5.769966e-09	1.033581e+01	-3.798955e+02
9.300000e-07	1.598232e-06	-5.650138e-09	1.141598e+01	-3.725067e+02
9.400000e-07	1.748817e-06	-5.545127e-09	1.249159e+01	-3.647201e+02
9.500000e-07	1.898594e-06	-5.433023e-09	1.356143e+01	-3.564237e+02
9.600000e-07	2.047667e-06	-5.293544e-09	1.462624e+01	-3.475137e+02
9.700000e-07	2.196058e-06	-5.132175e-09	1.568618e+01	-3.379011e+02
9.800000e-07	2.343652e-06	-4.969084e-09	1.674043e+01	-3.275044e+02
9.900000e-07	2.490475e-06	-4.810844e-09	1.778917e+01	-3.162290e+02
1.000000e-06	2.636418e-06	-4.638960e-09	1.883162e+01	-3.039362e+02
1.010000e-06	2.781376e-06	-4.430808e-09	1.986704e+01	-2.904104e+02
1.020000e-06	2.925412e-06	-4.184095e-09	2.089587e+01	-2.753336e+02
1.030000e-06	3.068437e-06	-3.913950e-09	2.191748e+01	-2.582800e+02
1.040000e-06	3.210264e-06	-3.620007e-09	2.293054e+01	-2.387353e+02
1.050000e-06	3.350822e-06	-3.283400e-09	2.393452e+01	-2.161455e+02
1.060000e-06	3.490056e-06	-2.882125e-09	2.492905e+01	-1.899901e+02
1.070000e-06	3.627979e-06	-2.411124e-09	2.591422e+01	-1.598690e+02
1.080000e-06	3.764586e-06	-1.885117e-09	2.688999e+01	-1.255891e+02
1.090000e-06	3.899744e-06	-1.309801e-09	2.785541e+01	-8.723322e+01
1.100000e-06	4.033491e-06	-6.802152e-10	2.881074e+01	-4.519660e+01
1.110000e-06	4.165835e-06	9.711129e-12	2.975607e+01	-1.823254e-01
1.120000e-06	4.296601e-06	7.435090e-10	3.069011e+01	4.684766e+01
1.130000e-06	4.425844e-06	1.486728e-09	3.161328e+01	9.475903e+01
1.140000e-06	4.553591e-06	2.208131e-09	3.252576e+01	1.423562e+02
1.150000e-06	4.679752e-06	2.898482e-09	3.342691e+01	1.885001e+02
1.160000e-06	4.804308e-06	3.558757e-09	3.431660e+01	2.322142e+02
1.170000e-06	4.927115e-06	4.178742e-09	3.519379e+01	2.727621e+02
1.180000e-06	5.048114e-06	4.741204e-09	3.605808e+01	3.096873e+02
1.190000e-06	5.167249e-06	5.234481e-09	3.690904e+01	3.428119e+02
1.200000e-06	5.284466e-06	5.667770e-09	3.774631e+01	3.721988e+02
1.210000e-06	5.399673e-06	6.056129e-09	3.856922e+01	3.980891e+02
1.220000e-06	5.512789e-06	6.409818e-09	3.937719e+01	4.208287e+02
1.230000e-06	5.623831e-06	6.720396e-09	4.017036e+01	4.407983e+02
1.240000e-06	5.732934e-06	6.983139e-09	4.094966e+01	4.583585e+02
1.250000e-06	5.840047e-06	7.207874e-09	4.171476e+01	4.738166e+02
1.260000e-06	5.945001e-06	7.409326e-09	4.246443e+01	4.874165e+02
1.270000e-06	6.047806e-06	7.594400e-09	4.319876e+01	4.993467e+02
1.280000e-06	6.148469e-06	7.755765e-09	4.391778e+01	5.097603e+02
1.290000e-06	6.246886e-06	7.887914e-09	4.462076e+01	5.187966e+02
1.300000e-06	6.342935e-06	7.996201e-09	4.530682e+01	5.265988e+02
1.310000e-06	6.436757e-06	8.094527e-09	4.597699e+01	5.333222e+02
1.320000e-06	6.528369e-06	8.188738e-09	4.663136e+01	5.391312e+02
1.330000e-06	6.617703e-06	8.271623e-09	4.726946e+01	5.441894e+02
1.340000e-06	6.704746e-06	8.338032e-09	4.789120e+01	5.486449e+02
1.350000e-06	6.789532e-06	8.392394e-09	4.849682e+01	5.526176e+02
1.360000e-06	6.871973e-06	8.444432e-09	4.908568e+01	5.561912e+02
1.370000e-06	6.951889e-06	8.494904e-09	4.965651e+01	5.594141e+02
1.380000e-06	7.029287e-06	8.539718e-09	5.020936e+01	5.623063e+02
1.390000e-06	7.104007e-06	8.574565e-09	5.074308e+01	5.648725e+02
1.400000e-06	7.176045e-06	8.601213e-09	5.125763e+01	5.671152e+02
1.410000e-06	7.245604e-06	8.626863e-09	5.175449e+01	5.690466e+02
1.420000e-06	7.312581e-06	8.654618e-09	5.223290e+01	5.706943e+02
1.430000e-06	7.376877e-06	8.681176e-09	5.269215e+01	5.721011e+02
1.440000e-06	7.438611e-06	8.700960e-09	5.313311e+01	5.733189e+02
1.450000e-06	7.497785e-06	8.715989e-09	5.355579e+01	5.744000e+02
1.460000e-06	7.554318e-06	8.731189e-09	5.395959e+01	5.753871e+02
1.470000e-06	7.608126e-06	8.747923e-09	5.434394e+01	5.763074e+02
1.480000e-06	7.658867e-06	8.762514e-09	5.470638e+01	5.771696e+02
1.490000e-06	7.706482e-06	8.771478e-09	5.504648e+01	5.779665e+02
1.500000e-06	7.751390e-06	8.777177e-09	5.536725e+01	5.786821e+02
1.510000e-06	7.793615e-06	8.785428e-09	5.566886e+01	5.792989e+02
1.520000e-06	7.832976e-06	8.797319e-09	5.595001e+01	5.798061e+02
1.530000e-06	7.869694e-06	8.807869e-09	5.621228e+01	5.802042e+02
1.540000e-06	7.903715e-06	8.813673e-09	5.645529e+01	5.805063e+02
1.550000e-06	7.934885e-06	8.817543e-09	5.667793e+01	5.807348e+02
1.560000e-06	7.963382e-06	8.822985e-09	5.688149e+01	5.809167e+02
1.570000e-06	7.989018e-06	8.828377e-09	5.706460e+01	5.810764e+02
1.580000e-06	8.011704e-06	8.832584e-09	5.722665e+01	5.812304e+02
1.590000e-06	8.031738e-06	8.834614e-09	5.736975e+01	5.813843e+02
1.600000e-06	8.048961e-06	8.834230e-09	5.749277e+01	5.815324e+02
1.610000e-06	8.063179e-06	8.834918e-09	5.759433e+01	5.816605e+02
1.620000e-06	8.074282e-06	8.838833e-09	5.767364e+01	5.817505e+02
1.630000e-06	8.082279e-06	8.844263e-09	5.773076e+01	5.817857e+02
1.640000e-06	8.087475e-06	8.847525e-09	5.776787e+01	5.817546e+02
1.650000e-06	8.089840e-06	8.848759e-09	5.778476e+01	5.816539e+02
1.660000e-06	8.089370e-06	8.845961e-09	5.778141e+01	5.814885e+02
1.670000e-06	8.086267e-06	8.839689e-09	5.775924e+01	5.812700e+02
1.680000e-06	8.080420e-06	8.840057e-09	5.771748e+01	5.810134e+02
1.690000e-06	8.071866e-06	8.837864e-09	5.765638e+01	5.807345e+02
1.700000e-06	8.060681e-06	8.833373e-09	5.757648e+01	5.804459e+02
1.710000e-06	8.046626e-06	8.835208e-09	5.747609e+01	5.801558e+02
1.720000e-06	8.029902e-06	8.854296e-09	5.735664e+01	5.798666e+02
1.730000e-06	8.010828e-06	8.850159e-09	5.722039e+01	5.795748e+02
1.740000e-06	7.988957e-06	8.748595e-09	5.706417e+01	5.792717e+02
1.750000e-06	7.963487e-06	8.747830e-09	5.688224e+01	5.789448e+02
1.760000e-06	7.934348e-06	8.780605e-09	5.667410e+01	5.785789e+02
1.770000e-06	7.902293e-06	8.761716e-09	5.644513e+01	5.781586e+02
1.780000e-06	7.867970e-06	8.771502e-09	5.619997e+01	5.776697e+02
1.790000e-06	7.831415e-06	8.852303e-09	5.593886e+01	5.771024e+02
1.800000e-06	7.792623e-06	8.717557e-09	5.566177e+01	5.764531e+02
1.810000e-06	7.751407e-06	8.719011e-09	5.536738e+01	5.757262e+02
1.820000e-06	7.707528e-06	8.842472e-09	5.505395e+01	5.749354e+02
1.830000e-06	7.661008e-06	8.704838e-09	5.472167e+01	5.741022e+02
1.840000e-06	7.611547e-06	8.808034e-09	5.436837e+01	5.732534e+02
1.850000e-06	7.559095e-06	8.723211e-09	5.399371e+01	5.724171e+02
1.860000e-06	7.503664e-06	8.718859e-09	5.359778e+01	5.716168e+02
1.870000e-06	7.445484e-06	8.797334e-09	5.318220e+01	5.708669e+02
1.880000e-06	7.384875e-06	8.692924e-09	5.274928e+01	5.701690e+02
1.890000e-06	7.321429e-06	8.753165e-09	5.229609e+01	5.695108e+02
1.900000e-06	7.255106e-06	8.635595e-09	5.182236e+01	5.688680e+02
1.910000e-06	7.186053e-06	8.678513e-09	5.132912e+01	5.682093e+02
1.920000e-06	7.114339e-06	8.720668e-09	5.081688e+01	5.675029e+02
1.930000e-06	7.040043e-06	8.680662e-09	5.028618e+01	5.667235e+02
1.940000e-06	6.962988e-06	8.665502e-09	4.973579e+01	5.658575e+02
1.950000e-06	6.883262e-06	8.546861e-09	4.916632e+01	5.649056e+02
1.960000e-06	6.801057e-06	8.654767e-09	4.857914e+01	5.638818e+02
1.970000e-06	6.716444e-06	8.633265e-09	4.797476e+01	5.628089e+02
1.980000e-06	6.629376e-06	8.613543e-09	4.735284e+01	5.617118e+02
1.990000e-06	6.539959e-06	8.569384e-09	4.671415e+01	5.606107e+02
2.000000e-06	6.448265e-06	8.516644e-09	4.605919e+01	5.595151e+02
2.010000e-06	6.354271e-06	8.550319e-09	4.538780e+01	5.584216e+02
2.020000e-06	6.258054e-06	8.549695e-09	4.470053e+01	5.573152e+02
2.030000e-06	6.159644e-06	8.568501e-09	4.399760e+01	5.561736e+02
2.040000e-06	6.059004e-06	8.468128e-09	4.327874e+01	5.549740e+02
2.050000e-06	5.956087e-06	8.424283e-09	4.254362e+01	5.536996e+02
2.060000e-06	5.851045e-06	8.420456e-09	4.179332e+01	5.523442e+02
2.070000e-06	5.743984e-06	8.461067e-09	4.102859e+01	5.509139e+02
2.080000e-06	5.634863e-06	8.433089e-09	4.024915e+01	5.494244e+02
2.090000e-06	5.523713e-06	8.347568e-09	3.945523e+01	5.478956e+02
2.100000e-06	5.410510e-06	8.306370e-09	3.864663e+01	5.463453e+02
2.110000e-06	5.295201e-06	8.315185e-09	3.782299e+01	5.447824e+02
2.120000e-06	5.177844e-06	8.343563e-09	3.698472e+01	5.432040e+02
2.130000e-06	5.058521e-06	8.312221e-09	3.613242e+01	5.415957e+02
2.140000e-06	4.937346e-06	8.254543e-09	3.526687e+01	5.399352e+02
2.150000e-06	4.814350e-06	8.190161e-09	3.438833e+01	5.381997e+02
2.160000e-06	4.689531e-06	8.184045e-09	3.349676e+01	5.363723e+02
2.170000e-06	4.563081e-06	8.204691e-09	3.259355e+01	5.344487e+02
2.180000e-06	4.435081e-06	8.194087e-09	3.167925e+01	5.324382e+02
2.190000e-06	4.305517e-06	8.109396e-09	3.075379e+01	5.303621e+02
2.200000e-06	4.174347e-06	8.035645e-09	2.981686e+01	5.282474e+02
2.210000e-06	4.041599e-06	8.031065e-09	2.886866e+01	5.261189e+02
2.220000e-06	3.907472e-06	8.052572e-09	2.791061e+01	5.239907e+02
2.230000e-06	3.772078e-06	8.019970e-09	2.694350e+01	5.218614e+02
2.240000e-06	3.635379e-06	7.937424e-09	2.596708e+01	5.197130e+02
2.250000e-06	3.497198e-06	7.873133e-09	2.498007e+01	5.175153e+02
2.260000e-06	3.357591e-06	7.852489e-09	2.398287e+01	5.152331e+02
2.270000e-06	3.216727e-06	7.856618e-09	2.297670e+01	5.128365e+02
2.280000e-06	3.074750e-06	7.833097e-09	2.196257e+01	5.103085e+02
2.290000e-06	2.931688e-06	7.760153e-09	2.094070e+01	5.076500e+02
2.300000e-06	2.787530e-06	7.676299e-09	1.991100e+01	5.048790e+02
2.310000e-06	2.642379e-06	7.651790e-09	1.887420e+01	5.020252e+02
2.320000e-06	2.496288e-06	7.661762e-09	1.783069e+01	4.991203e+02
2.330000e-06	2.349181e-06	7.630410e-09	1.677992e+01	4.961881e+02
2.340000e-06	2.201204e-06	7.542288e-09	1.572294e+01	4.932364e+02
2.350000e-06	2.052546e-06	7.459717e-09	1.466109e+01	4.902535e+02
2.360000e-06	1.903171e-06	7.427535e-09	1.359413e+01	4.872110e+02
2.370000e-06	1.753101e-06	7.417449e-09	1.252219e+01	4.840714e+02
2.380000e-06	1.602480e-06	7.380157e-09	1.144632e+01	4.807985e+02
2.390000e-06	1.451416e-06	7.299156e-09	1.036729e+01	4.773683e+02
2.400000e-06	1.299835e-06	7.208446e-09	9.284565e+00	4.737753e+02
2.410000e-06	1.147704e-06	7.158223e-09	8.197911e+00	4.700335e+02
2.420000e-06	9.951190e-07	7.142103e-09	7.108016e+00	4.661707e+02
2.430000e-06	8.422030e-07	7.102431e-09	6.015755e+00	4.622177e+02
2.440000e-06	6.890863e-07	7.012043e-09	4.922061e+00	4.581956e+02
2.450000e-06	5.357981e-07	6.913489e-09	3.827142e+00	4.541042e+02
2.460000e-06	3.822495e-07	6.857320e-09	2.730362e+00	4.499173e+02
2.470000e-06	2.284857e-07	6.827943e-09	1.632046e+00	4.455839e+02
2.480000e-06	7.465925e-08	6.775026e-09	5.332821e-01	4.410384e+02
2.490000e-06	-7.904960e-08	6.679549e-09	-5.646419e-01	4.362150e+02
2.500000e-06	-2.326828e-07	6.569115e-09	-1.662025e+00	4.310637e+02
2.510000e-06	-3.863395e-07	6.486338e-09	-2.759577e+00	4.255629e+02
2.520000e-06	-5.399391e-07	6.429477e-09	-3.856720e+00	4.197237e+02
2.530000e-06	-6.932766e-07	6.357057e-09	-4.951992e+00	4.135860e+02
2.540000e-06	-8.462646e-07	6.242017e-09	-6.044767e+00	4.072048e+02
2.550000e-06	-9.989896e-07	6.109512e-09	-7.135664e+00	4.006318e+02
2.560000e-06	-1.151407e-06	6.006278e-09	-8.224365e+00	3.938963e+02
2.570000e-06	-1.303395e-06	5.927476e-09	-9.309996e+00	3.869912e+02
2.580000e-06	-1.454811e-06	5.832868e-09	-1.039154e+01	3.798677e+02
2.590000e-06	-1.605656e-06	5.700478e-09	-1.146901e+01	3.724414e+02
2.600000e-06	-1.756002e-06	5.551617e-09	-1.254292e+01	3.646053e+02
2.610000e-06	-1.905765e-06	5.421564e-09	-1.361265e+01	3.562476e+02
2.620000e-06	-2.054791e-06	5.312060e-09	-1.467713e+01	3.472662e+02
2.630000e-06	-2.203125e-06	5.187532e-09	-1.573666e+01	3.375732e+02
2.640000e-06	-2.350717e-06	5.018007e-09	-1.679089e+01	3.270872e+02
2.650000e-06	-2.497377e-06	4.819647e-09	-1.783847e+01	3.157103e+02
2.660000e-06	-2.643132e-06	4.626152e-09	-1.887958e+01	3.032972e+02
2.670000e-06	-2.787950e-06	4.436613e-09	-1.991400e+01	2.896221e+02
2.680000e-06	-2.931691e-06	4.216432e-09	-2.094072e+01	2.743555e+02
2.690000e-06	-3.074366e-06	3.939675e-09	-2.195983e+01	2.570606e+02
2.700000e-06	-3.215922e-06	3.613498e-09	-2.297094e+01	2.372159e+02
2.710000e-06	-3.356302e-06	3.261022e-09	-2.397366e+01	2.142674e+02
2.720000e-06	-3.495395e-06	2.880913e-09	-2.496719e+01	1.877031e+02
2.730000e-06	-3.633177e-06	2.439116e-09	-2.595135e+01	1.571411e+02
2.740000e-06	-3.769599e-06	1.907019e-09	-2.692580e+01	1.224150e+02
2.750000e-06	-3.904526e-06	1.296706e-09	-2.788956e+01	8.363994e+01
2.760000e-06	-4.038053e-06	6.449615e-10	-2.884333e+01	4.124532e+01
2.770000e-06	-4.170239e-06	-3.101804e-11	-2.978752e+01	-4.035031e+00
2.780000e-06	-4.300964e-06	-7.397980e-10	-3.072127e+01	-5.121599e+01
2.790000e-06	-4.430162e-06	-1.481596e-09	-3.164412e+01	-9.915107e+01
2.800000e-06	-4.557786e-06	-2.225423e-09	-3.255573e+01	-1.466452e+02
2.810000e-06	-4.683786e-06	-2.931775e-09	-3.345573e+01	-1.925720e+02
2.820000e-06	-4.808266e-06	-3.580843e-09	-3.434487e+01	-2.359775e+02
2.830000e-06	-4.931059e-06	-4.181254e-09	-3.522197e+01	-2.761542e+02
2.840000e-06	-5.051980e-06	-4.746647e-09	-3.608569e+01	-3.126763e+02
2.850000e-06	-5.170947e-06	-5.267985e-09	-3.693546e+01	-3.453939e+02
2.860000e-06	-5.287904e-06	-5.721965e-09	-3.777087e+01	-3.743924e+02
2.870000e-06	-5.402649e-06	-6.104073e-09	-3.859048e+01	-3.999276e+02
2.880000e-06	-5.515160e-06	-6.439271e-09	-3.939413e+01	-4.223524e+02
2.890000e-06	-5.625641e-06	-6.748396e-09	-4.018329e+01	-4.420476e+02
2.900000e-06	-5.734147e-06	-7.031334e-09	-4.095833e+01	-4.593692e+02
2.910000e-06	-5.840737e-06	-7.273444e-09	-4.171969e+01	-4.746178e+02
2.920000e-06	-5.945296e-06	-7.470956e-09	-4.246654e+01	-4.880308e+02
2.930000e-06	-6.047687e-06	-7.638692e-09	-4.319791e+01	-4.997919e+02
2.940000e-06	-6.147883e-06	-7.795763e-09	-4.391359e+01	-5.100515e+02
