# Temperatura_=_20.0
# Concentracion g/m^3_=_7000.0
# C_Vs_to_Am_M_A/Vsm_=_65563218390.804596
# pendiente_HvsI_1/m_=_3716.3
# ordenada_HvsI_A/m_=_1297.0
# frecuencia_Hz_=_301403.47391363943

Tiempo_(s)	Campo_(V.s)	Magnetizacion_(V.s)	Campo_(kA/m)	Magnetizacion_(A/m)
0.000000e+00	-8.109926e-06	-8.500758e-09	-5.767829e+01	-5.555601e+02
1.000000e-08	-8.106620e-06	-8.497930e-09	-5.765478e+01	-5.554079e+02
2.000000e-08	-8.100727e-06	-8.490514e-09	-5.761287e+01	-5.552079e+02
3.000000e-08	-8.092202e-06	-8.487722e-09	-5.755224e+01	-5.549787e+02
4.000000e-08	-8.080826e-06	-8.487930e-09	-5.747133e+01	-5.547387e+02
5.000000e-08	-8.066482e-06	-8.483604e-09	-5.736932e+01	-5.545013e+02
6.000000e-08	-8.049240e-06	-8.469996e-09	-5.724670e+01	-5.542718e+02
7.000000e-08	-8.029511e-06	-8.449966e-09	-5.710638e+01	-5.540464e+02
8.000000e-08	-8.007287e-06	-8.491397e-09	-5.694832e+01	-5.538122e+02
9.000000e-08	-7.981939e-06	-8.522966e-09	-5.676804e+01	-5.535504e+02
1.000000e-07	-7.953347e-06	-8.490263e-09	-5.656470e+01	-5.532395e+02
1.100000e-07	-7.921857e-06	-8.461072e-09	-5.634074e+01	-5.528595e+02
1.200000e-07	-7.887501e-06	-8.462930e-09	-5.609640e+01	-5.523954e+02
1.300000e-07	-7.850596e-06	-8.453851e-09	-5.583393e+01	-5.518402e+02
1.400000e-07	-7.811633e-06	-8.397921e-09	-5.555682e+01	-5.511961e+02
1.500000e-07	-7.770228e-06	-8.457482e-09	-5.526234e+01	-5.504745e+02
1.600000e-07	-7.725960e-06	-8.398083e-09	-5.494751e+01	-5.496945e+02
1.700000e-07	-7.678967e-06	-8.309995e-09	-5.461329e+01	-5.488807e+02
1.800000e-07	-7.628981e-06	-8.400810e-09	-5.425778e+01	-5.480590e+02
1.900000e-07	-7.575871e-06	-8.345875e-09	-5.388006e+01	-5.472538e+02
2.000000e-07	-7.519902e-06	-8.310405e-09	-5.348201e+01	-5.464840e+02
2.100000e-07	-7.461173e-06	-8.300876e-09	-5.306433e+01	-5.457604e+02
2.200000e-07	-7.399852e-06	-8.283403e-09	-5.262821e+01	-5.450841e+02
2.300000e-07	-7.335867e-06	-8.316192e-09	-5.217314e+01	-5.444468e+02
2.400000e-07	-7.269112e-06	-8.307402e-09	-5.169838e+01	-5.438318e+02
2.500000e-07	-7.199743e-06	-8.301120e-09	-5.120502e+01	-5.432174e+02
2.600000e-07	-7.127680e-06	-8.240302e-09	-5.069250e+01	-5.425805e+02
2.700000e-07	-7.052796e-06	-8.239368e-09	-5.015992e+01	-5.419006e+02
2.800000e-07	-6.975191e-06	-8.256443e-09	-4.960799e+01	-5.411632e+02
2.900000e-07	-6.894932e-06	-8.258579e-09	-4.903718e+01	-5.403615e+02
3.000000e-07	-6.812226e-06	-8.245240e-09	-4.844897e+01	-5.394972e+02
3.100000e-07	-6.727280e-06	-8.167407e-09	-4.784484e+01	-5.385783e+02
3.200000e-07	-6.640059e-06	-8.169519e-09	-4.722451e+01	-5.376166e+02
3.300000e-07	-6.550421e-06	-8.186490e-09	-4.658700e+01	-5.366241e+02
3.400000e-07	-6.458442e-06	-8.184451e-09	-4.593284e+01	-5.356099e+02
3.500000e-07	-6.364216e-06	-8.146940e-09	-4.526270e+01	-5.345776e+02
3.600000e-07	-6.267646e-06	-8.106141e-09	-4.457589e+01	-5.335257e+02
3.700000e-07	-6.168750e-06	-8.085932e-09	-4.387253e+01	-5.324478e+02
3.800000e-07	-6.067628e-06	-8.087077e-09	-4.315335e+01	-5.313358e+02
3.900000e-07	-5.964322e-06	-8.109262e-09	-4.241863e+01	-5.301821e+02
4.000000e-07	-5.858840e-06	-8.080946e-09	-4.166843e+01	-5.289825e+02
4.100000e-07	-5.751269e-06	-8.034051e-09	-4.090338e+01	-5.277372e+02
4.200000e-07	-5.641680e-06	-7.998936e-09	-4.012398e+01	-5.264503e+02
4.300000e-07	-5.530042e-06	-8.013256e-09	-3.933000e+01	-5.251278e+02
4.400000e-07	-5.416177e-06	-8.023371e-09	-3.852019e+01	-5.237751e+02
4.500000e-07	-5.300141e-06	-7.988191e-09	-3.769493e+01	-5.223943e+02
4.600000e-07	-5.182227e-06	-7.927566e-09	-3.685632e+01	-5.209821e+02
4.700000e-07	-5.062496e-06	-7.894675e-09	-3.600479e+01	-5.195303e+02
4.800000e-07	-4.940843e-06	-7.895926e-09	-3.513958e+01	-5.180272e+02
4.900000e-07	-4.817315e-06	-7.888698e-09	-3.426105e+01	-5.164610e+02
5.000000e-07	-4.692126e-06	-7.858863e-09	-3.337069e+01	-5.148234e+02
5.100000e-07	-4.565348e-06	-7.803738e-09	-3.246904e+01	-5.131124e+02
5.200000e-07	-4.436909e-06	-7.757193e-09	-3.155557e+01	-5.113340e+02
5.300000e-07	-4.306761e-06	-7.743503e-09	-3.062995e+01	-5.095006e+02
5.400000e-07	-4.175015e-06	-7.752588e-09	-2.969297e+01	-5.076281e+02
5.500000e-07	-4.041859e-06	-7.725473e-09	-2.874596e+01	-5.057315e+02
5.600000e-07	-3.907322e-06	-7.660279e-09	-2.778911e+01	-5.038196e+02
5.700000e-07	-3.771329e-06	-7.613613e-09	-2.682193e+01	-5.018922e+02
5.800000e-07	-3.633871e-06	-7.610329e-09	-2.584431e+01	-4.999385e+02
5.900000e-07	-3.494987e-06	-7.611633e-09	-2.485656e+01	-4.979391e+02
6.000000e-07	-3.354730e-06	-7.577563e-09	-2.385905e+01	-4.958704e+02
6.100000e-07	-3.213106e-06	-7.520889e-09	-2.285181e+01	-4.937103e+02
6.200000e-07	-3.070207e-06	-7.467515e-09	-2.183550e+01	-4.914437e+02
6.300000e-07	-2.926093e-06	-7.439364e-09	-2.081055e+01	-4.890664e+02
6.400000e-07	-2.780836e-06	-7.425115e-09	-1.977747e+01	-4.865856e+02
6.500000e-07	-2.634730e-06	-7.392616e-09	-1.873837e+01	-4.840177e+02
6.600000e-07	-2.487835e-06	-7.323637e-09	-1.769363e+01	-4.813831e+02
6.700000e-07	-2.340050e-06	-7.258145e-09	-1.664258e+01	-4.786995e+02
6.800000e-07	-2.191537e-06	-7.232269e-09	-1.558635e+01	-4.759763e+02
6.900000e-07	-2.042324e-06	-7.219081e-09	-1.452513e+01	-4.732113e+02
7.000000e-07	-1.892373e-06	-7.180562e-09	-1.345868e+01	-4.703905e+02
7.100000e-07	-1.741783e-06	-7.116630e-09	-1.238767e+01	-4.674915e+02
7.200000e-07	-1.590563e-06	-7.057566e-09	-1.131218e+01	-4.644898e+02
7.300000e-07	-1.438675e-06	-7.014198e-09	-1.023195e+01	-4.613655e+02
7.400000e-07	-1.286161e-06	-6.983032e-09	-9.147255e+00	-4.581080e+02
7.500000e-07	-1.133197e-06	-6.940210e-09	-8.059370e+00	-4.547183e+02
7.600000e-07	-9.799184e-07	-6.870935e-09	-6.969240e+00	-4.512071e+02
7.700000e-07	-8.263318e-07	-6.794300e-09	-5.876923e+00	-4.475888e+02
7.800000e-07	-6.723891e-07	-6.741024e-09	-4.782073e+00	-4.438737e+02
7.900000e-07	-5.181364e-07	-6.707825e-09	-3.685018e+00	-4.400605e+02
8.000000e-07	-3.637161e-07	-6.657031e-09	-2.586771e+00	-4.361316e+02
8.100000e-07	-2.091889e-07	-6.577600e-09	-1.487765e+00	-4.320528e+02
8.200000e-07	-5.459464e-08	-6.489707e-09	-3.882805e-01	-4.277782e+02
8.300000e-07	9.997967e-08	-6.420048e-09	7.110616e-01	-4.232596e+02
8.400000e-07	2.545142e-07	-6.363177e-09	1.810120e+00	-4.184565e+02
8.500000e-07	4.089790e-07	-6.293503e-09	2.908684e+00	-4.133463e+02
8.600000e-07	5.632481e-07	-6.200400e-09	4.005856e+00	-4.079293e+02
8.700000e-07	7.173068e-07	-6.096240e-09	5.101530e+00	-4.022277e+02
8.800000e-07	8.711261e-07	-6.008172e-09	6.195503e+00	-3.962780e+02
8.900000e-07	1.024602e-06	-5.938414e-09	7.287032e+00	-3.901191e+02
9.000000e-07	1.177729e-06	-5.856953e-09	8.376079e+00	-3.837775e+02
9.100000e-07	1.330443e-06	-5.743366e-09	9.462193e+00	-3.772557e+02
9.200000e-07	1.482640e-06	-5.619766e-09	1.054463e+01	-3.705250e+02
9.300000e-07	1.634265e-06	-5.511758e-09	1.162299e+01	-3.635262e+02
9.400000e-07	1.785208e-06	-5.415590e-09	1.269651e+01	-3.561767e+02
9.500000e-07	1.935407e-06	-5.307950e-09	1.376473e+01	-3.483821e+02
9.600000e-07	2.084874e-06	-5.172062e-09	1.482775e+01	-3.400477e+02
9.700000e-07	2.233633e-06	-5.018348e-09	1.588574e+01	-3.310855e+02
9.800000e-07	2.381732e-06	-4.869367e-09	1.693903e+01	-3.214114e+02
9.900000e-07	2.529058e-06	-4.727657e-09	1.798682e+01	-3.109332e+02
1.000000e-06	2.675464e-06	-4.568204e-09	1.902806e+01	-2.995290e+02
1.010000e-06	2.821013e-06	-4.370278e-09	2.006322e+01	-2.870224e+02
1.020000e-06	2.965578e-06	-4.141285e-09	2.109138e+01	-2.731606e+02
1.030000e-06	3.108939e-06	-3.898141e-09	2.211097e+01	-2.576042e+02
1.040000e-06	3.251138e-06	-3.637980e-09	2.312230e+01	-2.399362e+02
1.050000e-06	3.392182e-06	-3.336720e-09	2.412541e+01	-2.196921e+02
1.060000e-06	3.531925e-06	-2.975168e-09	2.511927e+01	-1.964125e+02
1.070000e-06	3.670263e-06	-2.553457e-09	2.610314e+01	-1.697097e+02
1.080000e-06	3.807181e-06	-2.088002e-09	2.707691e+01	-1.393405e+02
1.090000e-06	3.942635e-06	-1.580349e-09	2.804026e+01	-1.052701e+02
1.100000e-06	4.076668e-06	-1.017508e-09	2.899351e+01	-6.771634e+01
1.110000e-06	4.209299e-06	-3.920487e-10	2.993679e+01	-2.716248e+01
1.120000e-06	4.340451e-06	2.779140e-10	3.086956e+01	1.566448e+01
1.130000e-06	4.469990e-06	9.590514e-10	3.179085e+01	5.985008e+01
1.140000e-06	4.597859e-06	1.630467e-09	3.270026e+01	1.043749e+02
1.150000e-06	4.724133e-06	2.286918e-09	3.359833e+01	1.482107e+02
1.160000e-06	4.848860e-06	2.928384e-09	3.448539e+01	1.904161e+02
1.170000e-06	4.971920e-06	3.539042e-09	3.536060e+01	2.302156e+02
1.180000e-06	5.093108e-06	4.099127e-09	3.622250e+01	2.670528e+02
1.190000e-06	5.212371e-06	4.597922e-09	3.707070e+01	3.006102e+02
1.200000e-06	5.329719e-06	5.043302e-09	3.790529e+01	3.307961e+02
1.210000e-06	5.445071e-06	5.448886e-09	3.872568e+01	3.577059e+02
1.220000e-06	5.558274e-06	5.818882e-09	3.953079e+01	3.815655e+02
1.230000e-06	5.669367e-06	6.144191e-09	4.032089e+01	4.026714e+02
1.240000e-06	5.778538e-06	6.421672e-09	4.109732e+01	4.213359e+02
1.250000e-06	5.885772e-06	6.662978e-09	4.185998e+01	4.378482e+02
1.260000e-06	5.990848e-06	6.881589e-09	4.260729e+01	4.524525e+02
1.270000e-06	6.093690e-06	7.081211e-09	4.333870e+01	4.653453e+02
1.280000e-06	6.194410e-06	7.255756e-09	4.405503e+01	4.766847e+02
1.290000e-06	6.292897e-06	7.401524e-09	4.475547e+01	4.866077e+02
1.300000e-06	6.388974e-06	7.523867e-09	4.543878e+01	4.952468e+02
1.310000e-06	6.482782e-06	7.635403e-09	4.610594e+01	5.027417e+02
1.320000e-06	6.574388e-06	7.741005e-09	4.675746e+01	5.092418e+02
1.330000e-06	6.663656e-06	7.832950e-09	4.739234e+01	5.149017e+02
1.340000e-06	6.750597e-06	7.906667e-09	4.801066e+01	5.198699e+02
1.350000e-06	6.835276e-06	7.968245e-09	4.861291e+01	5.242766e+02
1.360000e-06	6.917552e-06	8.026910e-09	4.919806e+01	5.282233e+02
1.370000e-06	6.997297e-06	8.084138e-09	4.976521e+01	5.317783e+02
1.380000e-06	7.074518e-06	8.135592e-09	5.031441e+01	5.349793e+02
1.390000e-06	7.149057e-06	8.175321e-09	5.084454e+01	5.378413e+02
1.400000e-06	7.220880e-06	8.205784e-09	5.135535e+01	5.403688e+02
1.410000e-06	7.290208e-06	8.235935e-09	5.184841e+01	5.425678e+02
1.420000e-06	7.356934e-06	8.268763e-09	5.232297e+01	5.444551e+02
1.430000e-06	7.420945e-06	8.298578e-09	5.277822e+01	5.460623e+02
1.440000e-06	7.482459e-06	8.318940e-09	5.321571e+01	5.474344e+02
1.450000e-06	7.541486e-06	8.333720e-09	5.363551e+01	5.486232e+02
1.460000e-06	7.597816e-06	8.348472e-09	5.403614e+01	5.496788e+02
1.470000e-06	7.651309e-06	8.366324e-09	5.441658e+01	5.506408e+02
1.480000e-06	7.701672e-06	8.383977e-09	5.477477e+01	5.515327e+02
1.490000e-06	7.748922e-06	8.395419e-09	5.511081e+01	5.523606e+02
1.500000e-06	7.793458e-06	8.401779e-09	5.542756e+01	5.531158e+02
1.510000e-06	7.835252e-06	8.408956e-09	5.572480e+01	5.537820e+02
1.520000e-06	7.874207e-06	8.420169e-09	5.600185e+01	5.543428e+02
1.530000e-06	7.910535e-06	8.431963e-09	5.626021e+01	5.547893e+02
1.540000e-06	7.944143e-06	8.438575e-09	5.649924e+01	5.551246e+02
1.550000e-06	7.974942e-06	8.439859e-09	5.671829e+01	5.553644e+02
1.560000e-06	8.003024e-06	8.441525e-09	5.691801e+01	5.555342e+02
1.570000e-06	8.028178e-06	8.445767e-09	5.709690e+01	5.556634e+02
1.580000e-06	8.050427e-06	8.451308e-09	5.725514e+01	5.557787e+02
1.590000e-06	8.069975e-06	8.455036e-09	5.739416e+01	5.558980e+02
1.600000e-06	8.086665e-06	8.454851e-09	5.751286e+01	5.560272e+02
1.610000e-06	8.100349e-06	8.454143e-09	5.761018e+01	5.561599e+02
1.620000e-06	8.110922e-06	8.457570e-09	5.768538e+01	5.562799e+02
1.630000e-06	8.118399e-06	8.463715e-09	5.773856e+01	5.563670e+02
1.640000e-06	8.123057e-06	8.466564e-09	5.777168e+01	5.564020e+02
1.650000e-06	8.124895e-06	8.466619e-09	5.778476e+01	5.563722e+02
1.660000e-06	8.123935e-06	8.461711e-09	5.777793e+01	5.562748e+02
1.670000e-06	8.120370e-06	8.458711e-09	5.775258e+01	5.561165e+02
1.680000e-06	8.114072e-06	8.459606e-09	5.770779e+01	5.559123e+02
1.690000e-06	8.105055e-06	8.458081e-09	5.764366e+01	5.556811e+02
1.700000e-06	8.093350e-06	8.455275e-09	5.756041e+01	5.554406e+02
1.710000e-06	8.078796e-06	8.456983e-09	5.745690e+01	5.552038e+02
1.720000e-06	8.061614e-06	8.470465e-09	5.733470e+01	5.549751e+02
1.730000e-06	8.042055e-06	8.436845e-09	5.719560e+01	5.547493e+02
1.740000e-06	8.019490e-06	8.377917e-09	5.703511e+01	5.545130e+02
1.750000e-06	7.993203e-06	8.397500e-09	5.684816e+01	5.542469e+02
1.760000e-06	7.963334e-06	8.409670e-09	5.663573e+01	5.539294e+02
1.770000e-06	7.930631e-06	8.393329e-09	5.640314e+01	5.535408e+02
1.780000e-06	7.895773e-06	8.423692e-09	5.615523e+01	5.530670e+02
1.790000e-06	7.858704e-06	8.443861e-09	5.589159e+01	5.525019e+02
1.800000e-06	7.819302e-06	8.335877e-09	5.561136e+01	5.518486e+02
1.810000e-06	7.777337e-06	8.399640e-09	5.531291e+01	5.511196e+02
1.820000e-06	7.732753e-06	8.416379e-09	5.499582e+01	5.503347e+02
1.830000e-06	7.685478e-06	8.345501e-09	5.465960e+01	5.495186e+02
1.840000e-06	7.635191e-06	8.407162e-09	5.430195e+01	5.486974e+02
1.850000e-06	7.581923e-06	8.323075e-09	5.392311e+01	5.478951e+02
1.860000e-06	7.525701e-06	8.368046e-09	5.352325e+01	5.471298e+02
1.870000e-06	7.466877e-06	8.366980e-09	5.310490e+01	5.464112e+02
1.880000e-06	7.405500e-06	8.332834e-09	5.266837e+01	5.457396e+02
1.890000e-06	7.341170e-06	8.329334e-09	5.221086e+01	5.451055e+02
1.900000e-06	7.274039e-06	8.245048e-09	5.173342e+01	5.444915e+02
1.910000e-06	7.204163e-06	8.331319e-09	5.123645e+01	5.438757e+02
1.920000e-06	7.131668e-06	8.327681e-09	5.072087e+01	5.432349e+02
1.930000e-06	7.056531e-06	8.298246e-09	5.018649e+01	5.425493e+02
1.940000e-06	6.978448e-06	8.240908e-09	4.963115e+01	5.418050e+02
1.950000e-06	6.897728e-06	8.206162e-09	4.905707e+01	5.409963e+02
1.960000e-06	6.814695e-06	8.284753e-09	4.846653e+01	5.401255e+02
1.970000e-06	6.729282e-06	8.258315e-09	4.785907e+01	5.392013e+02
1.980000e-06	6.641346e-06	8.244525e-09	4.723366e+01	5.382357e+02
1.990000e-06	6.551063e-06	8.173098e-09	4.659157e+01	5.372404e+02
2.000000e-06	6.458542e-06	8.162146e-09	4.593355e+01	5.362240e+02
2.010000e-06	6.363664e-06	8.189158e-09	4.525877e+01	5.351897e+02
2.020000e-06	6.266507e-06	8.209017e-09	4.456779e+01	5.341352e+02
2.030000e-06	6.167215e-06	8.179815e-09	4.386162e+01	5.330539e+02
2.040000e-06	6.065716e-06	8.086634e-09	4.313975e+01	5.319376e+02
2.050000e-06	5.961950e-06	8.063773e-09	4.240176e+01	5.307790e+02
2.060000e-06	5.856080e-06	8.081471e-09	4.164881e+01	5.295744e+02
2.070000e-06	5.748229e-06	8.111803e-09	4.088176e+01	5.283242e+02
2.080000e-06	5.638377e-06	8.057647e-09	4.010049e+01	5.270330e+02
2.090000e-06	5.526391e-06	7.984461e-09	3.930403e+01	5.257069e+02
2.100000e-06	5.412281e-06	7.953295e-09	3.849248e+01	5.243511e+02
2.110000e-06	5.296055e-06	7.984669e-09	3.766587e+01	5.229670e+02
2.120000e-06	5.177672e-06	8.003593e-09	3.682392e+01	5.215510e+02
2.130000e-06	5.057369e-06	7.964595e-09	3.596832e+01	5.200941e+02
2.140000e-06	4.935331e-06	7.896482e-09	3.510038e+01	5.185847e+02
2.150000e-06	4.811522e-06	7.852383e-09	3.421984e+01	5.170110e+02
2.160000e-06	4.685921e-06	7.866989e-09	3.332656e+01	5.153654e+02
2.170000e-06	4.558588e-06	7.890122e-09	3.242096e+01	5.136466e+02
2.180000e-06	4.429699e-06	7.858713e-09	3.150429e+01	5.118615e+02
2.190000e-06	4.299331e-06	7.770508e-09	3.057711e+01	5.100230e+02
2.200000e-06	4.167395e-06	7.720524e-09	2.963877e+01	5.081471e+02
2.210000e-06	4.033975e-06	7.735900e-09	2.868988e+01	5.062485e+02
2.220000e-06	3.899054e-06	7.753068e-09	2.773032e+01	5.043350e+02
2.230000e-06	3.762717e-06	7.704466e-09	2.676067e+01	5.024054e+02
2.240000e-06	3.625133e-06	7.623762e-09	2.578217e+01	5.004476e+02
2.250000e-06	3.486180e-06	7.571233e-09	2.479393e+01	4.984418e+02
2.260000e-06	3.345849e-06	7.566840e-09	2.379588e+01	4.963642e+02
2.270000e-06	3.204184e-06	7.574242e-09	2.278836e+01	4.941931e+02
2.280000e-06	3.061220e-06	7.541961e-09	2.177159e+01	4.919146e+02
2.290000e-06	2.917093e-06	7.462720e-09	2.074654e+01	4.895255e+02
2.300000e-06	2.772023e-06	7.398071e-09	1.971480e+01	4.870343e+02
2.310000e-06	2.626085e-06	7.395281e-09	1.867688e+01	4.844582e+02
2.320000e-06	2.479226e-06	7.405483e-09	1.763241e+01	4.818175e+02
2.330000e-06	2.331397e-06	7.361618e-09	1.658104e+01	4.791292e+02
2.340000e-06	2.182729e-06	7.272160e-09	1.552370e+01	4.764018e+02
2.350000e-06	2.033406e-06	7.204910e-09	1.446171e+01	4.736315e+02
2.360000e-06	1.883397e-06	7.186365e-09	1.339484e+01	4.708033e+02
2.370000e-06	1.732569e-06	7.177859e-09	1.232214e+01	4.678943e+02
2.380000e-06	1.581021e-06	7.133241e-09	1.124432e+01	4.648803e+02
2.390000e-06	1.428959e-06	7.048681e-09	1.016284e+01	4.617418e+02
2.400000e-06	1.276423e-06	6.969740e-09	9.077999e+00	4.584697e+02
2.410000e-06	1.123518e-06	6.937727e-09	7.990531e+00	4.550663e+02
2.420000e-06	9.702549e-07	6.927030e-09	6.900513e+00	4.515429e+02
2.430000e-06	8.166724e-07	6.879343e-09	5.808225e+00	4.479137e+02
2.440000e-06	6.628669e-07	6.786058e-09	4.714350e+00	4.441883e+02
2.450000e-06	5.088380e-07	6.702710e-09	3.618887e+00	4.403637e+02
2.460000e-06	3.546137e-07	6.663138e-09	2.522035e+00	4.364205e+02
2.470000e-06	2.001914e-07	6.636248e-09	1.423773e+00	4.323229e+02
2.480000e-06	4.568425e-08	6.576061e-09	3.249092e-01	4.280244e+02
2.490000e-06	-1.087235e-07	6.476684e-09	-7.732485e-01	4.234768e+02
2.500000e-06	-2.630189e-07	6.377519e-09	-1.870607e+00	4.186413e+02
2.510000e-06	-4.172109e-07	6.311159e-09	-2.967230e+00	4.134977e+02
2.520000e-06	-5.713296e-07	6.263102e-09	-4.063331e+00	4.080487e+02
2.530000e-06	-7.252375e-07	6.188474e-09	-5.157934e+00	4.023185e+02
2.540000e-06	-8.787693e-07	6.072720e-09	-6.249862e+00	3.963445e+02
2.550000e-06	-1.031997e-06	5.953491e-09	-7.339626e+00	3.901649e+02
2.560000e-06	-1.184938e-06	5.865049e-09	-8.427349e+00	3.838043e+02
2.570000e-06	-1.337534e-06	5.791002e-09	-9.512622e+00	3.772619e+02
2.580000e-06	-1.489641e-06	5.693958e-09	-1.059442e+01	3.705057e+02
2.590000e-06	-1.641129e-06	5.563256e-09	-1.167181e+01	3.634735e+02
2.600000e-06	-1.792017e-06	5.424438e-09	-1.274494e+01	3.560807e+02
2.610000e-06	-1.942268e-06	5.309606e-09	-1.381353e+01	3.482326e+02
2.620000e-06	-2.091785e-06	5.211551e-09	-1.487691e+01	3.398350e+02
2.630000e-06	-2.240524e-06	5.091189e-09	-1.593475e+01	3.308004e+02
2.640000e-06	-2.388475e-06	4.927729e-09	-1.698698e+01	3.210447e+02
2.650000e-06	-2.535572e-06	4.744816e-09	-1.803315e+01	3.104737e+02
2.660000e-06	-2.681753e-06	4.573222e-09	-1.907280e+01	2.989610e+02
2.670000e-06	-2.827011e-06	4.401870e-09	-2.010588e+01	2.863226e+02
2.680000e-06	-2.971314e-06	4.194835e-09	-2.113217e+01	2.722968e+02
2.690000e-06	-3.114545e-06	3.936076e-09	-2.215083e+01	2.565352e+02
2.700000e-06	-3.256526e-06	3.641812e-09	-2.316061e+01	2.386137e+02
2.710000e-06	-3.397208e-06	3.332106e-09	-2.416116e+01	2.180656e+02
2.720000e-06	-3.536575e-06	2.996879e-09	-2.515234e+01	1.944356e+02
2.730000e-06	-3.674638e-06	2.602143e-09	-2.613425e+01	1.673483e+02
2.740000e-06	-3.811405e-06	2.126133e-09	-2.710695e+01	1.365799e+02
2.750000e-06	-3.946780e-06	1.585034e-09	-2.806975e+01	1.021211e+02
2.760000e-06	-4.080691e-06	1.008649e-09	-2.902213e+01	6.421803e+01
2.770000e-06	-4.213095e-06	4.031539e-10	-2.996379e+01	2.338184e+01
2.780000e-06	-4.344008e-06	-2.447959e-10	-3.089486e+01	-1.963718e+01
2.790000e-06	-4.473490e-06	-9.338164e-10	-3.181574e+01	-6.390899e+01
2.800000e-06	-4.601460e-06	-1.631835e-09	-3.272587e+01	-1.084085e+02
2.810000e-06	-4.727747e-06	-2.301064e-09	-3.362403e+01	-1.521125e+02
2.820000e-06	-4.852284e-06	-2.928111e-09	-3.450975e+01	-1.940937e+02
2.830000e-06	-4.975115e-06	-3.522277e-09	-3.538333e+01	-2.335984e+02
2.840000e-06	-5.096218e-06	-4.089830e-09	-3.624462e+01	-2.700954e+02
2.850000e-06	-5.215484e-06	-4.616617e-09	-3.709285e+01	-3.032923e+02
2.860000e-06	-5.332636e-06	-5.078200e-09	-3.792604e+01	-3.331200e+02
2.870000e-06	-5.447470e-06	-5.475576e-09	-3.874274e+01	-3.596905e+02
2.880000e-06	-5.560078e-06	-5.832042e-09	-3.954362e+01	-3.832404e+02
2.890000e-06	-5.670592e-06	-6.162550e-09	-4.032960e+01	-4.040700e+02
2.900000e-06	-5.779164e-06	-6.462426e-09	-4.110177e+01	-4.224909e+02
2.910000e-06	-5.885880e-06	-6.717957e-09	-4.186074e+01	-4.387880e+02
2.920000e-06	-5.990578e-06	-6.931256e-09	-4.260536e+01	-4.532005e+02
2.930000e-06	-6.093002e-06	-7.117539e-09	-4.333381e+01	-4.659199e+02
2.940000e-06	-6.193165e-06	-7.291339e-09	-4.404618e+01	-4.771014e+02
